1SPECTRUM OF (Z= 82 A=207) IN PARTICLE-ROTOR  MODEL WITH MODIFIED OSCILLATOR POTENTIAL


 PARITY=-   EPS= 0.452   GAMMA= 30.0   EPS4=0.000   EPS6=0.000   LEVELS:  24  25  26  27  28  29  30  31  32  33  34  35  36  37  38

 PAIRING FACTORS: GN0= 19.20  GN1=  7.40  IPAIR= 15 ***  E2PLUS(INPUT)=   0.730  E2PLUR(INPUT)=   0.000

 CORIOLIS ATTENUATION PARAMETERS:  CHSI=0.000  ETA=  0.00

     FOR ETA .NE. 1, THE ANGULAR MOMENTUM EXPECTATION VALUES OF THE ENERGY EIGENSTATES ARE CALCULATED ONLY APPROXIMATELY

 MOMENT OF INERTIA PARAMETERS:   A1=  0.243 MEV   A2=  0.061 MEV   A3=  0.24333 MEV


 DELTA=0.880 MEV  LAMBDA=53.3022 MEV   HW0= 7.5872 MEV   LAMBDA/HW0= 7.0253

 E2ENERGY=0.730 MEV  HBAR**2/B=25202./A**(7/3)=4260.4/A**2 MEV

 IREC=0  =>  RECOIL TERMS j+j-, j+j+, jzjz, ETC TREATED AS ONE-BODY OPERATORS WITH UU+VV PAIRING FACTORS



 S. P. LEVEL   EQP       U     V        (UU + VV)**0.00

     24       4.539    0.097 0.995      1.000 1.000 1.000 1.000 1.000 1.000 1.000 1.000 1.000 1.000 1.000 1.000 1.000 1.000 1.000
     25       4.033    0.110 0.994      1.000 1.000 1.000 1.000 1.000 1.000 1.000 1.000 1.000 1.000 1.000 1.000 1.000 1.000 1.000
     26       3.478    0.128 0.992      1.000 1.000 1.000 1.000 1.000 1.000 1.000 1.000 1.000 1.000 1.000 1.000 1.000 1.000 1.000
     27       2.568    0.174 0.985      1.000 1.000 1.000 1.000 1.000 1.000 1.000 1.000 1.000 1.000 1.000 1.000 1.000 1.000 1.000
     28       1.926    0.235 0.972      1.000 1.000 1.000 1.000 1.000 1.000 1.000 1.000 1.000 1.000 1.000 1.000 1.000 1.000 1.000
     29       1.546    0.298 0.955      1.000 1.000 1.000 1.000 1.000 1.000 1.000 1.000 1.000 1.000 1.000 1.000 1.000 1.000 1.000
     30       1.339    0.351 0.936      1.000 1.000 1.000 1.000 1.000 1.000 1.000 1.000 1.000 1.000 1.000 1.000 1.000 1.000 1.000
     31       0.983    0.527 0.850      1.000 1.000 1.000 1.000 1.000 1.000 1.000 1.000 1.000 1.000 1.000 1.000 1.000 1.000 1.000
     32       0.885    0.745 0.667      1.000 1.000 1.000 1.000 1.000 1.000 1.000 1.000 1.000 1.000 1.000 1.000 1.000 1.000 1.000
     33       0.917    0.800 0.599      1.000 1.000 1.000 1.000 1.000 1.000 1.000 1.000 1.000 1.000 1.000 1.000 1.000 1.000 1.000
     34       1.522    0.953 0.303      1.000 1.000 1.000 1.000 1.000 1.000 1.000 1.000 1.000 1.000 1.000 1.000 1.000 1.000 1.000
     35       2.198    0.979 0.205      1.000 1.000 1.000 1.000 1.000 1.000 1.000 1.000 1.000 1.000 1.000 1.000 1.000 1.000 1.000
     36       2.710    0.986 0.165      1.000 1.000 1.000 1.000 1.000 1.000 1.000 1.000 1.000 1.000 1.000 1.000 1.000 1.000 1.000
     37       3.076    0.989 0.145      1.000 1.000 1.000 1.000 1.000 1.000 1.000 1.000 1.000 1.000 1.000 1.000 1.000 1.000 1.000
     38       3.327    0.991 0.133      1.000 1.000 1.000 1.000 1.000 1.000 1.000 1.000 1.000 1.000 1.000 1.000 1.000 1.000 1.000

  R CORE   ENERGY   A0R/A00=1.000    R3= 0     2  
   2( 1)    0.730                    0.866-0.500
   2( 2)    1.460                    0.500 0.866

  R CORE   ENERGY   A0R/A00=1.000    R3= 0     2  
   3( 1)    2.190                    0.000 1.000

  R CORE   ENERGY   A0R/A00=1.000    R3= 0     2     4  
   4( 1)    1.947                    0.740-0.661 0.125

  R CORE   ENERGY   A0R/A00=1.000    R3= 0     2     4  
   5( 1)    4.380                    0.000 0.866-0.500

  R CORE   ENERGY   A0R/A00=1.000    R3= 0     2     4     6  
   6( 1)    3.650                   -0.672 0.695-0.254 0.031

  R CORE   ENERGY   A0R/A00=1.000    R3= 0     2     4     6  
   7( 1)    7.057                    0.000 0.747-0.637 0.187
 

             ENERGY     K= 1/2
 
 I=  1/2- (1)  3.818  28: 1.000
 
 I=  1/2- (2)  4.344  30: 1.000
 
 I=  1/2- (3)  4.346  32: 1.000
 
 I=  1/2- (4)  4.927  33: 1.000
 
 I=  1/2- (5)  5.231  38: 1.000

             ENERGY     K= 1/2  -3/2
 
 I=  3/2- (1)  4.443  28: 0.767-0.642
 
 I=  3/2- (2)  4.613  32: 0.810-0.586

             ENERGY     K= 5/2   1/2  -3/2
 
 I=  5/2- (1)  4.559  28:-0.328 0.945-0.012
 
 I=  5/2- (2)  5.129  30: 0.265-0.816 0.514
 
 I=  5/2- (3)  5.176  28: 0.757 0.270 0.596
 
 I=  5/2- (4)  5.366  32: 0.362-0.873 0.328
 
 I=  5/2- (5)  5.552  38:-0.057-0.562 0.825

             ENERGY     K= 5/2   1/2  -3/2  -7/2
 
 I=  7/2- (1)  5.483  28:-0.023-0.663 0.740-0.113
 
 I=  7/2- (2)  5.562  32: 0.285-0.723 0.613-0.142
 
 I=  7/2- (3)  5.865  30:-0.095 0.607-0.757 0.220
 
 I=  7/2- (4)  6.055  28: 0.925-0.252-0.224-0.172
 
 I=  7/2- (5)  6.353  33: 0.601-0.739 0.303-0.024

             ENERGY     K= 9/2   5/2   1/2  -3/2  -7/2
 
 I=  9/2- (1)  5.885  28:-0.101 0.566-0.771 0.271 0.037
 
 I=  9/2- (2)  6.384  30:-0.066 0.392-0.712 0.554-0.170
 
 I=  9/2- (3)  6.854  32:-0.091 0.479-0.738 0.456-0.097
 
 I=  9/2- (4)  6.857  38:-0.016-0.107 0.582-0.745 0.307
 
 I=  9/2- (5)  7.108  33:-0.138 0.544-0.703 0.423-0.112

             ENERGY     K= 9/2   5/2   1/2  -3/2  -7/2 -11/2
 
 I= 11/2- (1)  5.818  26: 0.040 0.330 0.742 0.565 0.137 0.006
 
 I= 11/2- (2)  6.997  32:-0.088 0.370-0.663 0.592-0.253 0.035
 
 I= 11/2- (3)  7.098  28: 0.005-0.221 0.644-0.676 0.280-0.032
 
 I= 11/2- (4)  7.128  24: 0.003-0.002 0.009-0.053 0.246-0.968
 
 I= 11/2- (5)  7.530  30: 0.021-0.219 0.594-0.687 0.351-0.056

             ENERGY     K=13/2   9/2   5/2   1/2  -3/2  -7/2 -11/2
 
 I= 13/2- (1)  7.530  26: 0.007 0.180 0.618 0.250-0.598-0.402-0.050
 
 I= 13/2- (2)  7.692  28: 0.027-0.225 0.588-0.689 0.354-0.041-0.018
 
 I= 13/2- (3)  8.127  30: 0.016-0.144 0.431-0.653 0.549-0.249 0.051
 
 I= 13/2- (4)  8.652  38: 0.004 0.016-0.211 0.568-0.682 0.397-0.097
 
 I= 13/2- (5)  8.687  24: 0.001 0.003 0.000-0.023 0.124-0.414 0.901

             ENERGY     K=13/2   9/2   5/2   1/2  -3/2  -7/2 -11/2
  32 LEVELS    TIME=  0.0 SEC



 ******************* EXCITATION ENERGIES, DOMINANT CONFIGURATION AND EXPECTATION VALUES (WITH S.P. UU+VV FACTORS) *******************

  NR  Eex(keV)  I   Kdom  NY    <Jz>  <Jx**2> <Jy**2> <Jz**2> <I.j>/|I|  <Rx**2> <Ry**2> <Rz**2> <R.j>/|R|  <HROTx> <HROTy> <HROTz>

   1    0.0   1/2-   1/2  28    0.38    2.90   13.29    2.14    0.68       2.39   13.49    2.02   -4.19      0.581   0.821   0.490
   2  525.7   1/2-   1/2  30   -0.23    2.84    0.91    8.88    0.24       2.79    0.82    9.36   -3.45      0.679   0.050   2.277
   3  527.2   1/2-   1/2  32    0.04    3.90    6.09    8.31   -0.21       3.96    6.94    8.52   -4.19      0.963   0.422   2.074
   4  624.3   3/2-   1/2  28    0.38    2.90   13.29    2.14    0.01       2.98   15.60    3.46   -3.90      0.726   0.949   0.841
   5  741.0   5/2-   1/2  28    0.38    2.90   13.29    2.14    0.45       3.79   18.12    2.50   -3.44      0.922   1.102   0.608
  
   6  794.9   3/2-   1/2  32    0.04    3.90    6.09    8.31    0.47       4.42    6.53    9.26   -3.87      1.076   0.397   2.254
   7 1108.5   1/2-   1/2  33    0.60    2.67    3.20   12.95    0.33       3.04    3.37   12.59   -4.25      0.740   0.205   3.065
   8 1310.4   5/2-   1/2  30   -0.23    2.84    0.91    8.88    0.29       4.09    5.45   10.13   -2.65      0.994   0.331   2.464
   9 1358.2   5/2-   5/2  28    0.38    2.90   13.29    2.14    0.53       4.00   14.08    5.83   -3.42      0.974   0.857   1.419
  10 1412.3   1/2-   1/2  38   -0.37    1.38    9.49    2.57   -0.49       2.23    9.63    3.18   -3.57      0.543   0.586   0.775
  
  11 1547.4   5/2-   1/2  32    0.04    3.90    6.09    8.31   -0.41       5.21   14.72    9.52   -3.59      1.268   0.896   2.317
  12 1664.2   7/2-   3/2  28    0.38    2.90   13.29    2.14    0.12       4.30   24.73    4.13   -3.10      1.047   1.504   1.004
  13 1734.2   5/2-   3/2  38   -0.37    1.38    9.49    2.57    0.36       1.94   14.54    3.57   -2.76      0.473   0.884   0.868
  14 1743.2   7/2-   1/2  32    0.04    3.90    6.09    8.31    0.54       5.63   14.11   10.06   -2.96      1.369   0.859   2.448
  15 1999.2  11/2-   1/2  26    0.08   42.37    8.13    1.24    5.74       3.52   12.25    3.04   -4.01      0.855   0.745   0.739
  
  16 2046.5   7/2-   3/2  30   -0.23    2.84    0.91    8.88   -0.13       4.47   14.40   10.53   -2.42      1.088   0.876   2.562
  17 2066.8   9/2-   1/2  28    0.38    2.90   13.29    2.14    0.30       4.40   31.83    3.91   -2.66      1.072   1.936   0.951
  18 2236.4   7/2-   5/2  28    0.38    2.90   13.29    2.14    0.35       5.69   19.16    6.49   -3.03      1.384   1.165   1.579
  19 2534.9   7/2-   1/2  33    0.60    2.67    3.20   12.95    0.13       4.30   14.94   14.31   -3.16      1.046   0.909   3.481
  20 2566.2   9/2-   1/2  30   -0.23    2.84    0.91    8.88    0.31       5.08   18.09   11.14   -1.89      1.236   1.100   2.710
  
  21 3035.5   9/2-   1/2  32    0.04    3.90    6.09    8.31   -0.49       6.15   31.16   10.59   -2.99      1.496   1.896   2.577
  22 3038.3   9/2-   3/2  38   -0.37    1.38    9.49    2.57    0.28       3.10   27.91    4.42   -2.03      0.755   1.698   1.077
  23 3178.3  11/2-   1/2  32    0.04    3.90    6.09    8.31    0.56       6.63   29.70   11.06   -2.17      1.613   1.807   2.692
  24 3279.2  11/2-   3/2  28    0.38    2.90   13.29    2.14    0.03       5.37   43.35    5.04   -2.48      1.306   2.637   1.228
  25 3290.0   9/2-   1/2  33    0.60    2.67    3.20   12.95    0.14       4.93   22.28   14.95   -2.79      1.198   1.356   3.637
  
  26 3309.6  11/2-  11/2  24   -4.54    3.32    2.12   23.79    4.08       4.69    7.42    4.10   -1.20      1.140   0.451   0.997
  27 3711.6  13/2-   5/2  26    0.08   42.37    8.13    1.24    4.81       3.95   22.14    7.16   -3.14      0.962   1.347   1.743
  28 3712.0  11/2-   3/2  30   -0.23    2.84    0.91    8.88   -0.19       5.48   33.66   11.55   -1.94      1.334   2.048   2.810
  29 3874.0  13/2-   1/2  28    0.38    2.90   13.29    2.14    0.23       5.39   53.51    4.93   -2.09      1.311   3.255   1.200
  30 4308.3  13/2-   1/2  30   -0.23    2.84    0.91    8.88    0.32       6.08   38.72   12.14   -1.38      1.479   2.356   2.953
  
  31 4833.8  13/2-   3/2  38   -0.37    1.38    9.49    2.57    0.23       4.10   49.38    5.44   -1.54      0.998   3.004   1.323
  32 4868.5  13/2-  11/2  24   -4.54    3.32    2.12   23.79    3.31       7.93   19.54    4.23   -1.08      1.929   1.189   1.030
