1SPECTRUM OF (Z= 82 A=207) IN PARTICLE-ROTOR  MODEL WITH MODIFIED OSCILLATOR POTENTIAL


 PARITY=-   EPS= 0.450   GAMMA= 30.0   EPS4=0.000   EPS6=0.000   LEVELS:  24  25  26  27  28  29  30  31  32  33  34  35  36  37  38

 PAIRING FACTORS: GN0= 19.20  GN1=  7.40  IPAIR= 15 ***  E2PLUS(INPUT)=   0.730  E2PLUR(INPUT)=   0.000

 CORIOLIS ATTENUATION PARAMETERS:  CHSI=0.000  ETA=  0.00

     FOR ETA .NE. 1, THE ANGULAR MOMENTUM EXPECTATION VALUES OF THE ENERGY EIGENSTATES ARE CALCULATED ONLY APPROXIMATELY

 MOMENT OF INERTIA PARAMETERS:   A1=  0.243 MEV   A2=  0.061 MEV   A3=  0.24333 MEV


 DELTA=0.882 MEV  LAMBDA=53.2979 MEV   HW0= 7.5856 MEV   LAMBDA/HW0= 7.0262

 E2ENERGY=0.730 MEV  HBAR**2/B=24980./A**(7/3)=4222.8/A**2 MEV

 IREC=0  =>  RECOIL TERMS j+j-, j+j+, jzjz, ETC TREATED AS ONE-BODY OPERATORS WITH UU+VV PAIRING FACTORS



 S. P. LEVEL   EQP       U     V        (UU + VV)**0.00

     24       4.556    0.097 0.995      1.000 1.000 1.000 1.000 1.000 1.000 1.000 1.000 1.000 1.000 1.000 1.000 1.000 1.000 1.000
     25       4.036    0.110 0.994      1.000 1.000 1.000 1.000 1.000 1.000 1.000 1.000 1.000 1.000 1.000 1.000 1.000 1.000 1.000
     26       3.440    0.129 0.992      1.000 1.000 1.000 1.000 1.000 1.000 1.000 1.000 1.000 1.000 1.000 1.000 1.000 1.000 1.000
     27       2.579    0.174 0.985      1.000 1.000 1.000 1.000 1.000 1.000 1.000 1.000 1.000 1.000 1.000 1.000 1.000 1.000 1.000
     28       1.938    0.234 0.972      1.000 1.000 1.000 1.000 1.000 1.000 1.000 1.000 1.000 1.000 1.000 1.000 1.000 1.000 1.000
     29       1.518    0.305 0.952      1.000 1.000 1.000 1.000 1.000 1.000 1.000 1.000 1.000 1.000 1.000 1.000 1.000 1.000 1.000
     30       1.349    0.349 0.937      1.000 1.000 1.000 1.000 1.000 1.000 1.000 1.000 1.000 1.000 1.000 1.000 1.000 1.000 1.000
     31       0.971    0.539 0.842      1.000 1.000 1.000 1.000 1.000 1.000 1.000 1.000 1.000 1.000 1.000 1.000 1.000 1.000 1.000
     32       0.885    0.737 0.676      1.000 1.000 1.000 1.000 1.000 1.000 1.000 1.000 1.000 1.000 1.000 1.000 1.000 1.000 1.000
     33       0.913    0.793 0.609      1.000 1.000 1.000 1.000 1.000 1.000 1.000 1.000 1.000 1.000 1.000 1.000 1.000 1.000 1.000
     34       1.541    0.954 0.300      1.000 1.000 1.000 1.000 1.000 1.000 1.000 1.000 1.000 1.000 1.000 1.000 1.000 1.000 1.000
     35       2.228    0.979 0.202      1.000 1.000 1.000 1.000 1.000 1.000 1.000 1.000 1.000 1.000 1.000 1.000 1.000 1.000 1.000
     36       2.683    0.986 0.167      1.000 1.000 1.000 1.000 1.000 1.000 1.000 1.000 1.000 1.000 1.000 1.000 1.000 1.000 1.000
     37       3.102    0.990 0.144      1.000 1.000 1.000 1.000 1.000 1.000 1.000 1.000 1.000 1.000 1.000 1.000 1.000 1.000 1.000
     38       3.298    0.991 0.135      1.000 1.000 1.000 1.000 1.000 1.000 1.000 1.000 1.000 1.000 1.000 1.000 1.000 1.000 1.000

  R CORE   ENERGY   A0R/A00=1.000    R3= 0     2  
   2( 1)    0.730                    0.866-0.500
   2( 2)    1.460                    0.500 0.866

  R CORE   ENERGY   A0R/A00=1.000    R3= 0     2  
   3( 1)    2.190                    0.000 1.000

  R CORE   ENERGY   A0R/A00=1.000    R3= 0     2     4  
   4( 1)    1.947                    0.740-0.661 0.125

  R CORE   ENERGY   A0R/A00=1.000    R3= 0     2     4  
   5( 1)    4.380                    0.000 0.866-0.500

  R CORE   ENERGY   A0R/A00=1.000    R3= 0     2     4     6  
   6( 1)    3.650                   -0.672 0.695-0.254 0.031

  R CORE   ENERGY   A0R/A00=1.000    R3= 0     2     4     6  
   7( 1)    7.057                    0.000 0.747-0.637 0.187
 

             ENERGY     K= 1/2
 
 I=  1/2- (1)  3.828  28: 1.000
 
 I=  1/2- (2)  4.343  32: 1.000
 
 I=  1/2- (3)  4.355  30: 1.000
 
 I=  1/2- (4)  4.920  33: 1.000
 
 I=  1/2- (5)  5.200  38: 1.000

             ENERGY     K= 1/2  -3/2
 
 I=  3/2- (1)  4.454  28: 0.768-0.641
 
 I=  3/2- (2)  4.611  32: 0.812-0.584

             ENERGY     K= 5/2   1/2  -3/2
 
 I=  5/2- (1)  4.569  28:-0.329 0.944-0.013
 
 I=  5/2- (2)  5.138  30: 0.263-0.813 0.519
 
 I=  5/2- (3)  5.186  28: 0.757 0.272 0.594
 
 I=  5/2- (4)  5.363  32: 0.363-0.873 0.325
 
 I=  5/2- (5)  5.521  38:-0.057-0.562 0.825

             ENERGY     K= 5/2   1/2  -3/2  -7/2
 
 I=  7/2- (1)  5.494  28:-0.023-0.663 0.740-0.113
 
 I=  7/2- (2)  5.558  32: 0.286-0.723 0.612-0.142
 
 I=  7/2- (3)  5.869  30:-0.092 0.604-0.760 0.222
 
 I=  7/2- (4)  6.063  28: 0.926-0.252-0.224-0.172
 
 I=  7/2- (5)  6.344  33: 0.604-0.738 0.301-0.023

             ENERGY     K= 9/2   5/2   1/2  -3/2  -7/2
 
 I=  9/2- (1)  5.894  28:-0.101 0.566-0.771 0.271 0.036
 
 I=  9/2- (2)  6.393  30:-0.066 0.389-0.710 0.557-0.172
 
 I=  9/2- (3)  6.824  38:-0.016-0.107 0.582-0.745 0.307
 
 I=  9/2- (4)  6.852  32:-0.092 0.480-0.739 0.455-0.096
 
 I=  9/2- (5)  7.101  33:-0.140 0.547-0.702 0.420-0.111

             ENERGY     K= 9/2   5/2   1/2  -3/2  -7/2 -11/2
 
 I= 11/2- (1)  5.779  26: 0.040 0.330 0.742 0.565 0.138 0.006
 
 I= 11/2- (2)  6.993  32:-0.089 0.371-0.663 0.592-0.253 0.035
 
 I= 11/2- (3)  7.110  28: 0.006-0.222 0.644-0.676 0.279-0.032
 
 I= 11/2- (4)  7.135  24: 0.002-0.002 0.009-0.053 0.245-0.968
 
 I= 11/2- (5)  7.535  30: 0.019-0.216 0.592-0.689 0.354-0.057

             ENERGY     K=13/2   9/2   5/2   1/2  -3/2  -7/2 -11/2
 
 I= 13/2- (1)  7.492  26: 0.007 0.181 0.618 0.250-0.598-0.403-0.050
 
 I= 13/2- (2)  7.700  28: 0.027-0.225 0.588-0.689 0.354-0.041-0.017
 
 I= 13/2- (3)  8.135  30: 0.016-0.144 0.429-0.653 0.551-0.251 0.051
 
 I= 13/2- (4)  8.619  38: 0.004 0.016-0.211 0.568-0.682 0.397-0.097
 
 I= 13/2- (5)  8.695  24: 0.001 0.003 0.000-0.023 0.123-0.413 0.902

             ENERGY     K=13/2   9/2   5/2   1/2  -3/2  -7/2 -11/2
  32 LEVELS    TIME=  0.0 SEC



 ******************* EXCITATION ENERGIES, DOMINANT CONFIGURATION AND EXPECTATION VALUES (WITH S.P. UU+VV FACTORS) *******************

  NR  Eex(keV)  I   Kdom  NY    <Jz>  <Jx**2> <Jy**2> <Jz**2> <I.j>/|I|  <Rx**2> <Ry**2> <Rz**2> <R.j>/|R|  <HROTx> <HROTy> <HROTz>

   1    0.0   1/2-   1/2  28    0.38    2.90   13.27    2.14    0.69       2.39   13.48    2.01   -4.19      0.581   0.820   0.489
   2  514.7   1/2-   1/2  32    0.04    3.90    6.08    8.31   -0.21       3.96    6.93    8.52   -4.19      0.963   0.422   2.072
   3  527.5   1/2-   1/2  30   -0.24    2.84    0.91    8.87    0.23       2.79    0.82    9.37   -3.45      0.678   0.050   2.279
   4  625.6   3/2-   1/2  28    0.38    2.90   13.27    2.14    0.01       2.99   15.60    3.45   -3.90      0.727   0.949   0.840
   5  740.7   5/2-   1/2  28    0.38    2.90   13.27    2.14    0.45       3.79   18.10    2.50   -3.44      0.922   1.101   0.607
  
   6  782.8   3/2-   1/2  32    0.04    3.90    6.08    8.31    0.48       4.43    6.51    9.25   -3.86      1.077   0.396   2.252
   7 1092.2   1/2-   1/2  33    0.61    2.67    3.20   12.95    0.33       3.04    3.37   12.58   -4.25      0.740   0.205   3.062
   8 1310.0   5/2-   1/2  30   -0.24    2.84    0.91    8.87    0.29       4.08    5.45   10.13   -2.65      0.994   0.331   2.464
   9 1358.0   5/2-   5/2  28    0.38    2.90   13.27    2.14    0.54       4.01   14.05    5.82   -3.42      0.976   0.855   1.417
  10 1371.8   1/2-   1/2  38   -0.37    1.38    9.48    2.56   -0.49       2.23    9.61    3.18   -3.57      0.543   0.585   0.774
  
  11 1535.4   5/2-   1/2  32    0.04    3.90    6.08    8.31   -0.41       5.21   14.71    9.52   -3.59      1.267   0.895   2.315
  12 1666.4   7/2-   3/2  28    0.38    2.90   13.27    2.14    0.11       4.31   24.73    4.12   -3.10      1.048   1.504   1.004
  13 1692.6   5/2-   3/2  38   -0.37    1.38    9.48    2.56    0.36       1.94   14.52    3.56   -2.76      0.473   0.883   0.867
  14 1730.5   7/2-   1/2  32    0.04    3.90    6.08    8.31    0.54       5.63   14.09   10.05   -2.96      1.369   0.857   2.446
  15 1950.7  11/2-   1/2  26    0.08   42.48    8.12    1.24    5.75       3.51   12.23    3.04   -4.02      0.853   0.744   0.741
  
  16 2041.2   7/2-   3/2  30   -0.24    2.84    0.91    8.87   -0.12       4.46   14.37   10.52   -2.42      1.086   0.874   2.560
  17 2065.7   9/2-   1/2  28    0.38    2.90   13.27    2.14    0.30       4.40   31.80    3.90   -2.66      1.071   1.935   0.949
  18 2235.2   7/2-   5/2  28    0.38    2.90   13.27    2.14    0.35       5.69   19.14    6.48   -3.03      1.385   1.164   1.576
  19 2516.2   7/2-   1/2  33    0.61    2.67    3.20   12.95    0.13       4.30   14.92   14.29   -3.16      1.045   0.907   3.478
  20 2565.5   9/2-   1/2  30   -0.24    2.84    0.91    8.87    0.31       5.08   18.08   11.13   -1.89      1.235   1.100   2.709
  
  21 2996.2   9/2-   3/2  38   -0.37    1.38    9.48    2.56    0.28       3.10   27.88    4.42   -2.02      0.755   1.696   1.075
  22 3024.0   9/2-   1/2  32    0.04    3.90    6.08    8.31   -0.49       6.15   31.16   10.58   -2.99      1.496   1.895   2.576
  23 3165.1  11/2-   1/2  32    0.04    3.90    6.08    8.31    0.56       6.63   29.67   11.06   -2.17      1.613   1.805   2.690
  24 3273.1   9/2-   1/2  33    0.61    2.67    3.20   12.95    0.14       4.92   22.27   14.94   -2.79      1.198   1.355   3.635
  25 3282.0  11/2-   3/2  28    0.38    2.90   13.27    2.14    0.02       5.37   43.36    5.04   -2.48      1.307   2.638   1.227
  
  26 3306.6  11/2-  11/2  24   -4.55    3.31    2.15   23.87    4.09       4.68    7.44    4.06   -1.21      1.138   0.452   0.988
  27 3663.6  13/2-   5/2  26    0.08   42.48    8.12    1.24    4.82       3.95   22.11    7.18   -3.15      0.960   1.345   1.746
  28 3706.6  11/2-   3/2  30   -0.24    2.84    0.91    8.87   -0.19       5.48   33.62   11.54   -1.93      1.332   2.046   2.808
  29 3872.2  13/2-   1/2  28    0.38    2.90   13.27    2.14    0.23       5.39   53.47    4.93   -2.09      1.311   3.253   1.199
  30 4307.5  13/2-   1/2  30   -0.24    2.84    0.91    8.87    0.32       6.08   38.72   12.13   -1.38      1.479   2.355   2.953
  
  31 4791.2  13/2-   3/2  38   -0.37    1.38    9.48    2.56    0.24       4.10   49.35    5.43   -1.53      0.997   3.002   1.322
  32 4866.9  13/2-  11/2  24   -4.55    3.31    2.15   23.87    3.32       7.92   19.54    4.20   -1.09      1.928   1.189   1.022
