1SPECTRUM OF (Z= 82 A=207) IN PARTICLE-ROTOR  MODEL WITH MODIFIED OSCILLATOR POTENTIAL


 PARITY=-   EPS= 0.456   GAMMA= 30.0   EPS4=0.000   EPS6=0.000   LEVELS:  24  25  26  27  28  29  30  31  32  33  34  35  36  37  38

 PAIRING FACTORS: GN0= 19.20  GN1=  7.40  IPAIR= 15 ***  E2PLUS(INPUT)=   0.730  E2PLUR(INPUT)=   0.000

 CORIOLIS ATTENUATION PARAMETERS:  CHSI=0.000  ETA=  0.00

     FOR ETA .NE. 1, THE ANGULAR MOMENTUM EXPECTATION VALUES OF THE ENERGY EIGENSTATES ARE CALCULATED ONLY APPROXIMATELY

 MOMENT OF INERTIA PARAMETERS:   A1=  0.243 MEV   A2=  0.061 MEV   A3=  0.24333 MEV


 DELTA=0.876 MEV  LAMBDA=53.3113 MEV   HW0= 7.5905 MEV   LAMBDA/HW0= 7.0234

 E2ENERGY=0.730 MEV  HBAR**2/B=25650./A**(7/3)=4336.1/A**2 MEV

 IREC=0  =>  RECOIL TERMS j+j-, j+j+, jzjz, ETC TREATED AS ONE-BODY OPERATORS WITH UU+VV PAIRING FACTORS



 S. P. LEVEL   EQP       U     V        (UU + VV)**0.00

     24       4.506    0.098 0.995      1.000 1.000 1.000 1.000 1.000 1.000 1.000 1.000 1.000 1.000 1.000 1.000 1.000 1.000 1.000
     25       4.026    0.109 0.994      1.000 1.000 1.000 1.000 1.000 1.000 1.000 1.000 1.000 1.000 1.000 1.000 1.000 1.000 1.000
     26       3.554    0.124 0.992      1.000 1.000 1.000 1.000 1.000 1.000 1.000 1.000 1.000 1.000 1.000 1.000 1.000 1.000 1.000
     27       2.544    0.175 0.985      1.000 1.000 1.000 1.000 1.000 1.000 1.000 1.000 1.000 1.000 1.000 1.000 1.000 1.000 1.000
     28       1.903    0.237 0.972      1.000 1.000 1.000 1.000 1.000 1.000 1.000 1.000 1.000 1.000 1.000 1.000 1.000 1.000 1.000
     29       1.604    0.285 0.959      1.000 1.000 1.000 1.000 1.000 1.000 1.000 1.000 1.000 1.000 1.000 1.000 1.000 1.000 1.000
     30       1.319    0.355 0.935      1.000 1.000 1.000 1.000 1.000 1.000 1.000 1.000 1.000 1.000 1.000 1.000 1.000 1.000 1.000
     31       1.008    0.503 0.864      1.000 1.000 1.000 1.000 1.000 1.000 1.000 1.000 1.000 1.000 1.000 1.000 1.000 1.000 1.000
     32       0.887    0.760 0.650      1.000 1.000 1.000 1.000 1.000 1.000 1.000 1.000 1.000 1.000 1.000 1.000 1.000 1.000 1.000
     33       0.927    0.814 0.581      1.000 1.000 1.000 1.000 1.000 1.000 1.000 1.000 1.000 1.000 1.000 1.000 1.000 1.000 1.000
     34       1.484    0.951 0.311      1.000 1.000 1.000 1.000 1.000 1.000 1.000 1.000 1.000 1.000 1.000 1.000 1.000 1.000 1.000
     35       2.139    0.978 0.209      1.000 1.000 1.000 1.000 1.000 1.000 1.000 1.000 1.000 1.000 1.000 1.000 1.000 1.000 1.000
     36       2.765    0.987 0.161      1.000 1.000 1.000 1.000 1.000 1.000 1.000 1.000 1.000 1.000 1.000 1.000 1.000 1.000 1.000
     37       3.022    0.989 0.147      1.000 1.000 1.000 1.000 1.000 1.000 1.000 1.000 1.000 1.000 1.000 1.000 1.000 1.000 1.000
     38       3.318    0.991 0.133      1.000 1.000 1.000 1.000 1.000 1.000 1.000 1.000 1.000 1.000 1.000 1.000 1.000 1.000 1.000

  R CORE   ENERGY   A0R/A00=1.000    R3= 0     2  
   2( 1)    0.730                    0.866-0.500
   2( 2)    1.460                    0.500 0.866

  R CORE   ENERGY   A0R/A00=1.000    R3= 0     2  
   3( 1)    2.190                    0.000 1.000

  R CORE   ENERGY   A0R/A00=1.000    R3= 0     2     4  
   4( 1)    1.947                    0.740-0.661 0.125

  R CORE   ENERGY   A0R/A00=1.000    R3= 0     2     4  
   5( 1)    4.380                    0.000 0.866-0.500

  R CORE   ENERGY   A0R/A00=1.000    R3= 0     2     4     6  
   6( 1)    3.650                   -0.672 0.695-0.254 0.031

  R CORE   ENERGY   A0R/A00=1.000    R3= 0     2     4     6  
   7( 1)    7.057                    0.000 0.747-0.637 0.187
 

             ENERGY     K= 1/2
 
 I=  1/2- (1)  3.799  28: 1.000
 
 I=  1/2- (2)  4.322  30: 1.000
 
 I=  1/2- (3)  4.353  32: 1.000
 
 I=  1/2- (4)  4.942  33: 1.000
 
 I=  1/2- (5)  6.004  36: 1.000

             ENERGY     K= 1/2  -3/2
 
 I=  3/2- (1)  4.421  28: 0.766-0.643
 
 I=  3/2- (2)  4.620  32: 0.808-0.590

             ENERGY     K= 5/2   1/2  -3/2
 
 I=  5/2- (1)  4.541  28:-0.326 0.945-0.010
 
 I=  5/2- (2)  5.111  30: 0.269-0.822 0.502
 
 I=  5/2- (3)  5.158  28: 0.755 0.267 0.599
 
 I=  5/2- (4)  5.372  32: 0.359-0.872 0.331
 
 I=  5/2- (5)  5.751  30: 0.040 0.531 0.847

             ENERGY     K= 5/2   1/2  -3/2  -7/2
 
 I=  7/2- (1)  5.459  28:-0.022-0.663 0.740-0.114
 
 I=  7/2- (2)  5.569  32: 0.284-0.722 0.615-0.143
 
 I=  7/2- (3)  5.856  30:-0.101 0.614-0.753 0.215
 
 I=  7/2- (4)  6.038  28: 0.925-0.252-0.224-0.174
 
 I=  7/2- (5)  6.373  33: 0.596-0.741 0.308-0.025

             ENERGY     K= 9/2   5/2   1/2  -3/2  -7/2
 
 I=  9/2- (1)  5.868  28:-0.101 0.566-0.772 0.270 0.037
 
 I=  9/2- (2)  6.367  30:-0.067 0.396-0.714 0.549-0.165
 
 I=  9/2- (3)  6.859  32:-0.091 0.476-0.738 0.459-0.098
 
 I=  9/2- (4)  7.124  33:-0.135 0.539-0.704 0.428-0.114
 
 I=  9/2- (5)  7.625  28: 0.295-0.291-0.486-0.710 0.298

             ENERGY     K= 9/2   5/2   1/2  -3/2  -7/2 -11/2
 
 I= 11/2- (1)  5.896  26: 0.039 0.330 0.743 0.565 0.137 0.006
 
 I= 11/2- (2)  7.005  32: 0.088-0.369 0.662-0.593 0.254-0.036
 
 I= 11/2- (3)  7.073  28: 0.005-0.220 0.644-0.677 0.280-0.032
 
 I= 11/2- (4)  7.150  24: 0.003-0.003 0.009-0.055 0.250-0.967
 
 I= 11/2- (5)  7.522  30: 0.023-0.226 0.599-0.684 0.346-0.055

             ENERGY     K=13/2   9/2   5/2   1/2  -3/2  -7/2 -11/2
 
 I= 13/2- (1)  7.607  26: 0.007 0.179 0.619 0.250-0.599-0.402-0.049
 
 I= 13/2- (2)  7.677  28: 0.027-0.224 0.588-0.690 0.354-0.041-0.018
 
 I= 13/2- (3)  8.110  30: 0.017-0.146 0.435-0.655 0.546-0.245 0.049
 
 I= 13/2- (4)  8.704  24: 0.001 0.003-0.000-0.024 0.126-0.419 0.899
 
 I= 13/2- (5)  8.831  32: 0.023-0.183 0.497-0.670 0.486-0.182 0.028

             ENERGY     K=13/2   9/2   5/2   1/2  -3/2  -7/2 -11/2
  32 LEVELS    TIME=  0.0 SEC



 ******************* EXCITATION ENERGIES, DOMINANT CONFIGURATION AND EXPECTATION VALUES (WITH S.P. UU+VV FACTORS) *******************

  NR  Eex(keV)  I   Kdom  NY    <Jz>  <Jx**2> <Jy**2> <Jz**2> <I.j>/|I|  <Rx**2> <Ry**2> <Rz**2> <R.j>/|R|  <HROTx> <HROTy> <HROTz>

   1    0.0   1/2-   1/2  28    0.37    2.90   13.32    2.15    0.68       2.38   13.53    2.03   -4.20      0.580   0.823   0.493
   2  522.9   1/2-   1/2  30   -0.21    2.85    0.90    8.88    0.25       2.80    0.81    9.34   -3.45      0.681   0.049   2.273
   3  553.5   1/2-   1/2  32    0.03    3.90    6.10    8.33   -0.22       3.96    6.95    8.55   -4.20      0.963   0.423   2.079
   4  621.7   3/2-   1/2  28    0.37    2.90   13.32    2.15    0.01       2.98   15.62    3.47   -3.90      0.724   0.950   0.844
   5  741.5   5/2-   1/2  28    0.37    2.90   13.32    2.15    0.45       3.79   18.16    2.51   -3.45      0.923   1.105   0.610
  
   6  820.6   3/2-   1/2  32    0.03    3.90    6.10    8.33    0.47       4.41    6.56    9.29   -3.87      1.074   0.399   2.260
   7 1142.4   1/2-   1/2  33    0.59    2.67    3.21   12.95    0.32       3.04    3.38   12.61   -4.25      0.740   0.206   3.069
   8 1311.4   5/2-   1/2  30   -0.21    2.85    0.90    8.88    0.29       4.09    5.45   10.13   -2.66      0.995   0.332   2.465
   9 1358.6   5/2-   5/2  28    0.37    2.90   13.32    2.15    0.53       3.99   14.13    5.85   -3.43      0.972   0.860   1.424
  10 1572.9   5/2-   1/2  32    0.03    3.90    6.10    8.33   -0.41       5.21   14.74    9.54   -3.60      1.268   0.897   2.320
  
  11 1659.9   7/2-   3/2  28    0.37    2.90   13.32    2.15    0.12       4.30   24.73    4.13   -3.11      1.046   1.505   1.006
  12 1770.0   7/2-   1/2  32    0.03    3.90    6.10    8.33    0.53       5.63   14.16   10.07   -2.97      1.369   0.862   2.451
  13 1951.5   5/2-   3/2  30   -0.21    2.85    0.90    8.88    0.16       7.28    2.98   10.18   -2.69      1.772   0.181   2.478
  14 2057.3   7/2-   3/2  30   -0.21    2.85    0.90    8.88   -0.14       4.49   14.46   10.55   -2.43      1.092   0.880   2.566
  15 2069.0   9/2-   1/2  28    0.37    2.90   13.32    2.15    0.29       4.40   31.89    3.92   -2.67      1.072   1.940   0.954
  
  16 2097.2  11/2-   1/2  26    0.08   42.15    8.15    1.22    5.72       3.53   12.28    3.02   -3.99      0.860   0.747   0.735
  17 2205.3   1/2-   1/2  36    0.41    1.90    2.27   11.07    0.59       1.85    2.22   10.91   -3.81      0.450   0.135   2.655
  18 2238.9   7/2-   5/2  28    0.37    2.90   13.32    2.15    0.34       5.68   19.19    6.52   -3.03      1.382   1.167   1.586
  19 2567.8   9/2-   1/2  30   -0.21    2.85    0.90    8.88    0.31       5.08   18.10   11.14   -1.89      1.236   1.101   2.711
  20 2573.6   7/2-   1/2  33    0.59    2.67    3.21   12.95    0.12       4.30   15.00   14.33   -3.17      1.047   0.912   3.487
  
  21 3059.8   9/2-   1/2  32    0.03    3.90    6.10    8.33   -0.49       6.15   31.17   10.61   -3.00      1.495   1.896   2.581
  22 3206.2  11/2-   1/2  32    0.03    3.90    6.10    8.33    0.55       6.63   29.76   11.08   -2.18      1.613   1.811   2.695
  23 3273.6  11/2-   3/2  28    0.37    2.90   13.32    2.15    0.03       5.36   43.33    5.05   -2.48      1.305   2.636   1.229
  24 3325.0   9/2-   1/2  33    0.59    2.67    3.21   12.95    0.14       4.93   22.31   14.96   -2.79      1.199   1.357   3.641
  25 3350.7  11/2-  11/2  24   -4.50    3.37    2.07   23.56    4.04       4.72    7.42    4.29   -1.19      1.148   0.451   1.045
  
  26 3722.7  11/2-   3/2  30   -0.21    2.85    0.90    8.88   -0.20       5.49   33.73   11.56   -1.94      1.337   2.052   2.814
  27 3808.3  13/2-   5/2  26    0.08   42.15    8.15    1.22    4.80       3.97   22.18    7.14   -3.13      0.966   1.350   1.737
  28 3826.2   9/2-   3/2  28    0.37    2.90   13.32    2.15    0.46      11.54   20.02    6.98   -2.59      2.807   1.218   1.697
  29 3877.5  13/2-   1/2  28    0.37    2.90   13.32    2.15    0.23       5.39   53.59    4.95   -2.10      1.311   3.260   1.203
  30 4310.4  13/2-   1/2  30   -0.21    2.85    0.90    8.88    0.32       6.08   38.74   12.14   -1.38      1.479   2.357   2.955
  
  31 4904.4  13/2-  11/2  24   -4.50    3.37    2.07   23.56    3.28       7.94   19.61    4.41   -1.08      1.931   1.193   1.073
  32 5031.6  13/2-   1/2  32    0.03    3.90    6.10    8.33   -0.52       7.14   55.57   11.61   -2.55      1.738   3.380   2.825
