1SPECTRUM OF (Z= 82 A=207) IN PARTICLE-ROTOR  MODEL WITH MODIFIED OSCILLATOR POTENTIAL


 PARITY=-   EPS= 0.449   GAMMA= 30.0   EPS4=0.000   EPS6=0.000   LEVELS:  24  25  26  27  28  29  30  31  32  33  34  35  36  37  38

 PAIRING FACTORS: GN0= 19.20  GN1=  7.40  IPAIR= 15 ***  E2PLUS(INPUT)=   0.730  E2PLUR(INPUT)=   0.000

 CORIOLIS ATTENUATION PARAMETERS:  CHSI=0.000  ETA=  0.00

     FOR ETA .NE. 1, THE ANGULAR MOMENTUM EXPECTATION VALUES OF THE ENERGY EIGENSTATES ARE CALCULATED ONLY APPROXIMATELY

 MOMENT OF INERTIA PARAMETERS:   A1=  0.243 MEV   A2=  0.061 MEV   A3=  0.24333 MEV


 DELTA=0.883 MEV  LAMBDA=53.2958 MEV   HW0= 7.5847 MEV   LAMBDA/HW0= 7.0267

 E2ENERGY=0.730 MEV  HBAR**2/B=24869./A**(7/3)=4204.0/A**2 MEV

 IREC=0  =>  RECOIL TERMS j+j-, j+j+, jzjz, ETC TREATED AS ONE-BODY OPERATORS WITH UU+VV PAIRING FACTORS



 S. P. LEVEL   EQP       U     V        (UU + VV)**0.00

     24       4.565    0.097 0.995      1.000 1.000 1.000 1.000 1.000 1.000 1.000 1.000 1.000 1.000 1.000 1.000 1.000 1.000 1.000
     25       4.038    0.110 0.994      1.000 1.000 1.000 1.000 1.000 1.000 1.000 1.000 1.000 1.000 1.000 1.000 1.000 1.000 1.000
     26       3.422    0.130 0.991      1.000 1.000 1.000 1.000 1.000 1.000 1.000 1.000 1.000 1.000 1.000 1.000 1.000 1.000 1.000
     27       2.585    0.173 0.985      1.000 1.000 1.000 1.000 1.000 1.000 1.000 1.000 1.000 1.000 1.000 1.000 1.000 1.000 1.000
     28       1.944    0.234 0.972      1.000 1.000 1.000 1.000 1.000 1.000 1.000 1.000 1.000 1.000 1.000 1.000 1.000 1.000 1.000
     29       1.504    0.309 0.951      1.000 1.000 1.000 1.000 1.000 1.000 1.000 1.000 1.000 1.000 1.000 1.000 1.000 1.000 1.000
     30       1.354    0.348 0.938      1.000 1.000 1.000 1.000 1.000 1.000 1.000 1.000 1.000 1.000 1.000 1.000 1.000 1.000 1.000
     31       0.966    0.545 0.838      1.000 1.000 1.000 1.000 1.000 1.000 1.000 1.000 1.000 1.000 1.000 1.000 1.000 1.000 1.000
     32       0.886    0.733 0.680      1.000 1.000 1.000 1.000 1.000 1.000 1.000 1.000 1.000 1.000 1.000 1.000 1.000 1.000 1.000
     33       0.911    0.790 0.614      1.000 1.000 1.000 1.000 1.000 1.000 1.000 1.000 1.000 1.000 1.000 1.000 1.000 1.000 1.000
     34       1.550    0.954 0.298      1.000 1.000 1.000 1.000 1.000 1.000 1.000 1.000 1.000 1.000 1.000 1.000 1.000 1.000 1.000
     35       2.242    0.980 0.201      1.000 1.000 1.000 1.000 1.000 1.000 1.000 1.000 1.000 1.000 1.000 1.000 1.000 1.000 1.000
     36       2.669    0.986 0.168      1.000 1.000 1.000 1.000 1.000 1.000 1.000 1.000 1.000 1.000 1.000 1.000 1.000 1.000 1.000
     37       3.116    0.990 0.143      1.000 1.000 1.000 1.000 1.000 1.000 1.000 1.000 1.000 1.000 1.000 1.000 1.000 1.000 1.000
     38       3.283    0.991 0.136      1.000 1.000 1.000 1.000 1.000 1.000 1.000 1.000 1.000 1.000 1.000 1.000 1.000 1.000 1.000

  R CORE   ENERGY   A0R/A00=1.000    R3= 0     2  
   2( 1)    0.730                    0.866-0.500
   2( 2)    1.460                    0.500 0.866

  R CORE   ENERGY   A0R/A00=1.000    R3= 0     2  
   3( 1)    2.190                    0.000 1.000

  R CORE   ENERGY   A0R/A00=1.000    R3= 0     2     4  
   4( 1)    1.947                    0.740-0.661 0.125

  R CORE   ENERGY   A0R/A00=1.000    R3= 0     2     4  
   5( 1)    4.380                    0.000 0.866-0.500

  R CORE   ENERGY   A0R/A00=1.000    R3= 0     2     4     6  
   6( 1)    3.650                   -0.672 0.695-0.254 0.031

  R CORE   ENERGY   A0R/A00=1.000    R3= 0     2     4     6  
   7( 1)    7.057                    0.000 0.747-0.637 0.187
 

             ENERGY     K= 1/2
 
 I=  1/2- (1)  3.833  28: 1.000
 
 I=  1/2- (2)  4.341  32: 1.000
 
 I=  1/2- (3)  4.361  30: 1.000
 
 I=  1/2- (4)  4.917  33: 1.000
 
 I=  1/2- (5)  5.184  38: 1.000

             ENERGY     K= 1/2  -3/2
 
 I=  3/2- (1)  4.459  28: 0.768-0.640
 
 I=  3/2- (2)  4.610  32: 0.813-0.583

             ENERGY     K= 5/2   1/2  -3/2
 
 I=  5/2- (1)  4.573  28:-0.329 0.944-0.013
 
 I=  5/2- (2)  5.143  30: 0.262-0.811 0.523
 
 I=  5/2- (3)  5.191  28: 0.757 0.273 0.593
 
 I=  5/2- (4)  5.362  32: 0.364-0.873 0.324
 
 I=  5/2- (5)  5.505  38:-0.057-0.562 0.825

             ENERGY     K= 5/2   1/2  -3/2  -7/2
 
 I=  7/2- (1)  5.500  28:-0.023-0.663 0.740-0.113
 
 I=  7/2- (2)  5.557  32: 0.287-0.723 0.612-0.142
 
 I=  7/2- (3)  5.871  30:-0.090 0.602-0.761 0.224
 
 I=  7/2- (4)  6.067  28: 0.926-0.252-0.224-0.171
 
 I=  7/2- (5)  6.340  33: 0.606-0.737 0.300-0.023

             ENERGY     K= 9/2   5/2   1/2  -3/2  -7/2
 
 I=  9/2- (1)  5.898  28:-0.101 0.566-0.771 0.271 0.036
 
 I=  9/2- (2)  6.398  30:-0.065 0.388-0.710 0.558-0.173
 
 I=  9/2- (3)  6.808  38:-0.016-0.107 0.581-0.745 0.307
 
 I=  9/2- (4)  6.851  32:-0.092 0.480-0.739 0.454-0.095
 
 I=  9/2- (5)  7.098  33:-0.141 0.548-0.701 0.419-0.111

             ENERGY     K= 9/2   5/2   1/2  -3/2  -7/2 -11/2
 
 I= 11/2- (1)  5.759  26: 0.040 0.331 0.742 0.565 0.138 0.006
 
 I= 11/2- (2)  6.991  32:-0.089 0.371-0.663 0.591-0.252 0.035
 
 I= 11/2- (3)  7.116  28: 0.006-0.222 0.644-0.676 0.279-0.032
 
 I= 11/2- (4)  7.143  24: 0.002-0.002 0.009-0.053 0.245-0.968
 
 I= 11/2- (5)  7.537  30: 0.019-0.214 0.591-0.689 0.355-0.057

             ENERGY     K=13/2   9/2   5/2   1/2  -3/2  -7/2 -11/2
 
 I= 13/2- (1)  7.473  26: 0.007 0.181 0.618 0.250-0.598-0.403-0.050
 
 I= 13/2- (2)  7.704  28: 0.027-0.225 0.588-0.689 0.354-0.042-0.017
 
 I= 13/2- (3)  8.140  30: 0.016-0.143 0.428-0.652 0.552-0.252 0.052
 
 I= 13/2- (4)  8.603  38: 0.004 0.016-0.211 0.568-0.682 0.397-0.097
 
 I= 13/2- (5)  8.704  24: 0.001 0.003 0.000-0.023 0.123-0.413 0.902

             ENERGY     K=13/2   9/2   5/2   1/2  -3/2  -7/2 -11/2
  32 LEVELS    TIME=  0.0 SEC



 ******************* EXCITATION ENERGIES, DOMINANT CONFIGURATION AND EXPECTATION VALUES (WITH S.P. UU+VV FACTORS) *******************

  NR  Eex(keV)  I   Kdom  NY    <Jz>  <Jx**2> <Jy**2> <Jz**2> <I.j>/|I|  <Rx**2> <Ry**2> <Rz**2> <R.j>/|R|  <HROTx> <HROTy> <HROTz>

   1    0.0   1/2-   1/2  28    0.38    2.90   13.26    2.14    0.69       2.39   13.47    2.01   -4.19      0.581   0.819   0.488
   2  508.6   1/2-   1/2  32    0.04    3.90    6.07    8.30   -0.21       3.96    6.93    8.51   -4.19      0.963   0.422   2.071
   3  528.4   1/2-   1/2  30   -0.25    2.84    0.91    8.87    0.23       2.78    0.82    9.37   -3.45      0.677   0.050   2.280
   4  626.3   3/2-   1/2  28    0.38    2.90   13.26    2.14    0.01       2.99   15.59    3.45   -3.90      0.727   0.949   0.839
   5  740.5   5/2-   1/2  28    0.38    2.90   13.26    2.14    0.45       3.79   18.09    2.49   -3.44      0.921   1.101   0.607
  
   6  776.8   3/2-   1/2  32    0.04    3.90    6.07    8.30    0.48       4.43    6.51    9.25   -3.86      1.078   0.396   2.250
   7 1084.2   1/2-   1/2  33    0.62    2.67    3.20   12.94    0.33       3.04    3.37   12.58   -4.25      0.740   0.205   3.061
   8 1309.8   5/2-   1/2  30   -0.25    2.84    0.91    8.87    0.29       4.08    5.45   10.13   -2.65      0.993   0.331   2.464
   9 1351.5   1/2-   1/2  38   -0.37    1.38    9.47    2.56   -0.49       2.23    9.60    3.18   -3.57      0.543   0.584   0.774
  10 1357.9   5/2-   5/2  28    0.38    2.90   13.26    2.14    0.54       4.01   14.04    5.82   -3.42      0.977   0.854   1.416
  
  11 1529.4   5/2-   1/2  32    0.04    3.90    6.07    8.30   -0.41       5.21   14.71    9.51   -3.59      1.267   0.895   2.315
  12 1667.5   7/2-   3/2  28    0.38    2.90   13.26    2.14    0.11       4.31   24.72    4.12   -3.10      1.048   1.504   1.003
  13 1671.7   5/2-   3/2  38   -0.37    1.38    9.47    2.56    0.36       1.94   14.51    3.56   -2.76      0.473   0.883   0.866
  14 1724.3   7/2-   1/2  32    0.04    3.90    6.07    8.30    0.54       5.63   14.08   10.05   -2.96      1.370   0.856   2.446
  15 1926.5  11/2-   1/2  26    0.08   42.54    8.11    1.24    5.76       3.50   12.23    3.05   -4.03      0.852   0.744   0.742
  
  16 2038.5   7/2-   3/2  30   -0.25    2.84    0.91    8.87   -0.12       4.46   14.36   10.51   -2.42      1.085   0.873   2.559
  17 2065.1   9/2-   1/2  28    0.38    2.90   13.26    2.14    0.30       4.40   31.79    3.90   -2.66      1.071   1.934   0.948
  18 2234.5   7/2-   5/2  28    0.38    2.90   13.26    2.14    0.35       5.69   19.13    6.47   -3.02      1.385   1.164   1.574
  19 2506.9   7/2-   1/2  33    0.62    2.67    3.20   12.94    0.14       4.30   14.90   14.29   -3.16      1.045   0.906   3.477
  20 2565.2   9/2-   1/2  30   -0.25    2.84    0.91    8.87    0.31       5.08   18.08   11.13   -1.89      1.235   1.100   2.709
  
  21 2975.1   9/2-   3/2  38   -0.37    1.38    9.47    2.56    0.28       3.10   27.87    4.42   -2.02      0.755   1.695   1.075
  22 3018.3   9/2-   1/2  32    0.04    3.90    6.07    8.30   -0.49       6.15   31.15   10.58   -2.99      1.496   1.895   2.575
  23 3158.6  11/2-   1/2  32    0.04    3.90    6.07    8.30    0.56       6.63   29.65   11.05   -2.17      1.613   1.804   2.689
  24 3264.7   9/2-   1/2  33    0.62    2.67    3.20   12.94    0.14       4.92   22.26   14.93   -2.79      1.198   1.354   3.633
  25 3283.5  11/2-   3/2  28    0.38    2.90   13.26    2.14    0.02       5.37   43.37    5.04   -2.48      1.307   2.638   1.226
  
  26 3310.5  11/2-  11/2  24   -4.56    3.30    2.17   23.91    4.09       4.67    7.45    4.06   -1.22      1.137   0.453   0.988
  27 3639.7  13/2-   5/2  26    0.08   42.54    8.11    1.24    4.83       3.94   22.10    7.18   -3.15      0.959   1.345   1.747
  28 3703.8  11/2-   3/2  30   -0.25    2.84    0.91    8.87   -0.19       5.47   33.61   11.53   -1.93      1.332   2.044   2.807
  29 3871.3  13/2-   1/2  28    0.38    2.90   13.26    2.14    0.24       5.39   53.45    4.92   -2.09      1.311   3.251   1.198
  30 4307.1  13/2-   1/2  30   -0.25    2.84    0.91    8.87    0.32       6.08   38.71   12.13   -1.38      1.478   2.355   2.953
  
  31 4769.9  13/2-   3/2  38   -0.37    1.38    9.47    2.56    0.24       4.10   49.33    5.43   -1.53      0.997   3.001   1.321
  32 4871.2  13/2-  11/2  24   -4.56    3.30    2.17   23.91    3.33       7.92   19.56    4.20   -1.09      1.927   1.190   1.022
