1SPECTRUM OF (Z= 82 A=207) IN PARTICLE-ROTOR  MODEL WITH MODIFIED OSCILLATOR POTENTIAL


 PARITY=-   EPS= 0.270   GAMMA= 37.1   EPS4=0.000   EPS6=0.000   LEVELS:  25  26  27  28  29  30  31  32  33  34  35  36  37  38  39

 PAIRING FACTORS: GN0= 19.20  GN1=  7.40  IPAIR= 15 ***  E2PLUS(INPUT)=   0.730  E2PLUR(INPUT)=   0.000

 CORIOLIS ATTENUATION PARAMETERS:  CHSI=1.000  ETA=  1.00

 MOMENT OF INERTIA PARAMETERS:   A1=  0.447 MEV   A2=  0.069 MEV   A3=  0.18513 MEV


 DELTA=0.879 MEV  LAMBDA=53.3820 MEV   HW0= 7.4705 MEV   LAMBDA/HW0= 7.1457

 E2ENERGY=0.730 MEV  HBAR**2/B= 9977./A**(7/3)=1686.7/A**2 MEV

 IREC=0  =>  RECOIL TERMS j+j-, j+j+, jzjz, ETC TREATED AS ONE-BODY OPERATORS WITH UU+VV PAIRING FACTORS



 S. P. LEVEL   EQP       U     V        (UU + VV)**1.00

     25       4.710    0.094 0.996      1.000 1.000 0.999 0.998 0.996 0.991 0.894 0.878 0.538 0.389 0.327 0.287 0.239 0.209 0.193
     26       3.871    0.114 0.993      1.000 1.000 1.000 0.999 0.998 0.994 0.903 0.887 0.555 0.408 0.346 0.306 0.259 0.229 0.214
     27       3.122    0.142 0.990      0.999 1.000 1.000 1.000 0.999 0.996 0.915 0.900 0.578 0.433 0.373 0.333 0.286 0.257 0.241
     28       2.747    0.162 0.987      0.998 0.999 1.000 1.000 1.000 0.998 0.923 0.909 0.595 0.451 0.391 0.352 0.306 0.276 0.261
     29       2.485    0.180 0.984      0.996 0.998 0.999 1.000 1.000 0.999 0.929 0.916 0.609 0.467 0.408 0.369 0.323 0.293 0.278
     30       2.002    0.225 0.974      0.991 0.994 0.996 0.998 0.999 1.000 0.945 0.934 0.645 0.508 0.450 0.412 0.366 0.337 0.322
     31       0.977    0.530 0.848      0.894 0.903 0.915 0.923 0.929 0.945 1.000 0.999 0.859 0.761 0.716 0.686 0.649 0.626 0.613
     32       0.947    0.559 0.829      0.878 0.887 0.900 0.909 0.916 0.934 0.999 1.000 0.876 0.783 0.740 0.711 0.675 0.652 0.640
     33       1.082    0.890 0.456      0.538 0.555 0.578 0.595 0.609 0.645 0.859 0.876 1.000 0.986 0.973 0.962 0.947 0.937 0.931
     34       1.531    0.954 0.301      0.389 0.408 0.433 0.451 0.467 0.508 0.761 0.783 0.986 1.000 0.998 0.994 0.988 0.982 0.979
     35       1.908    0.972 0.237      0.327 0.346 0.373 0.391 0.408 0.450 0.716 0.740 0.973 0.998 1.000 0.999 0.996 0.993 0.990
     36       2.289    0.981 0.196      0.287 0.306 0.333 0.352 0.369 0.412 0.686 0.711 0.962 0.994 0.999 1.000 0.999 0.997 0.995
     37       3.016    0.989 0.147      0.239 0.259 0.286 0.306 0.323 0.366 0.649 0.675 0.947 0.988 0.996 0.999 1.000 1.000 0.999
     38       3.791    0.993 0.117      0.209 0.229 0.257 0.276 0.293 0.337 0.626 0.652 0.937 0.982 0.993 0.997 1.000 1.000 1.000
     39       4.386    0.995 0.101      0.193 0.214 0.241 0.261 0.278 0.322 0.613 0.640 0.931 0.979 0.990 0.995 0.999 1.000 1.000

  R CORE   ENERGY   A0R/A00=1.000    R3= 0     2  
   2( 1)    0.730                   -0.626 0.780
   2( 2)    2.074                    0.780 0.626

  R CORE   ENERGY   A0R/A00=1.000    R3= 0     2  
   3( 1)    2.804                    0.000 1.000

  R CORE   ENERGY   A0R/A00=1.000    R3= 0     2     4  
   4( 1)    2.163                   -0.597 0.704-0.385

  R CORE   ENERGY   A0R/A00=1.000    R3= 0     2     4  
   5( 1)    4.994                    0.000-0.626 0.780

  R CORE   ENERGY   A0R/A00=1.000    R3= 0     2     4     6  
   6( 1)    4.113                   -0.562 0.688-0.430 0.161

  R CORE   ENERGY   A0R/A00=1.000    R3= 0     2     4     6  
   7( 1)    7.942                    0.000-0.497 0.695-0.519
 

             ENERGY     K= 1/2
 
 I=  1/2- (1)  2.612  27:-0.223
                      28: 0.251
                      29:-0.124
                      31:-0.729
                      33: 0.493
                      35:-0.310
 
 I=  1/2- (2)  2.647  27: 0.185
                      28:-0.154
                      30:-0.115
                      31: 0.528
                      33: 0.709
                      35:-0.380
 
 I=  1/2- (3)  4.533  26: 0.072
                      28:-0.089
                      29:-0.194
                      30: 0.263
                      33:-0.449
                      35:-0.821
 
 I=  1/2- (4)  5.013  27:-0.333
                      28:-0.905
                      29:-0.173
                      31:-0.172
                      33: 0.060
                      35: 0.075
 
 I=  1/2- (5)  5.194  25:-0.152
                      26: 0.183
                      30: 0.923
                      33: 0.213
                      35: 0.207

             ENERGY     K= 1/2  -3/2
 
 I=  3/2- (1)  2.464  27:-0.003-0.059
                      28:-0.165 0.081
                      29: 0.034-0.090
                      30:-0.212-0.049
                      31: 0.040-0.457
                      33: 0.714 0.073
                      35: 0.198 0.374
 
 I=  3/2- (2)  2.583  28:-0.121 0.021
                      29:-0.045-0.052
                      30:-0.103-0.124
                      31: 0.006-0.242
                      33:-0.154-0.811
                      35:-0.401 0.222

             ENERGY     K= 5/2   1/2  -3/2
 
 I=  5/2- (1)  2.463  27:-0.090 0.013-0.023
                      28: 0.070-0.244 0.023
                      30: 0.028 0.124 0.212
                      31:-0.465 0.069-0.217
                      33:-0.058-0.350 0.533
                      35:-0.393-0.003 0.163
 
 I=  5/2- (2)  3.175  25: 0.001-0.094-0.098
                      26: 0.020 0.014 0.062
                      27: 0.059-0.233 0.006
                      28:-0.201-0.147-0.166
                      29:-0.063-0.107 0.002
                      30: 0.038 0.325 0.293
                      31: 0.301-0.695 0.030
                      33:-0.086-0.073 0.144
                      35: 0.085-0.068 0.042
 
 I=  5/2- (3)  3.269  25:-0.029-0.029 0.069
                      26: 0.060 0.040 0.017
                      27: 0.045 0.068-0.070
                      28: 0.112 0.031-0.169
                      29:-0.049 0.007-0.095
                      30: 0.309 0.194-0.291
                      31: 0.222 0.171-0.456
                      33:-0.465 0.050 0.055
                      35: 0.175-0.225 0.341
 
 I=  5/2- (4)  3.554  25: 0.012 0.023 0.055
                      26:-0.002-0.096 0.110
                      27: 0.063 0.055-0.012
                      28:-0.015 0.174 0.064
                      29:-0.230 0.036 0.109
                      30:-0.058-0.209-0.231
                      31: 0.499 0.121 0.259
                      33: 0.035-0.383 0.535
 
 I=  5/2- (5)  4.086  25:-0.018-0.067 0.033
                      27: 0.017-0.002-0.071
                      28: 0.022-0.053-0.015
                      29:-0.085 0.046-0.114
                      30:-0.051 0.289-0.168
                      31: 0.167 0.021-0.403
                      33: 0.521-0.416-0.276
                      35: 0.001 0.365 0.046

             ENERGY     K= 5/2   1/2  -3/2  -7/2
 
 I=  7/2- (1)  3.164  25: 0.064-0.019 0.016 0.020
                      26: 0.112-0.032 0.034-0.027
                      27:-0.026 0.009 0.015-0.235
                      28: 0.020-0.186 0.200-0.025
                      29: 0.026 0.009-0.030 0.242
                      30: 0.261-0.057-0.129 0.006
                      31:-0.199 0.064-0.111 0.477
                      33:-0.331 0.338-0.227-0.039
                      35:-0.170 0.060 0.088-0.315
 
 I=  7/2- (2)  3.310  25:-0.031-0.030 0.056 0.036
                      26:-0.016 0.046 0.009 0.051
                      27:-0.089 0.000 0.020 0.074
                      28:-0.239 0.035 0.089 0.020
                      29: 0.036-0.002 0.073-0.074
                      30: 0.028 0.233-0.247-0.314
                      31:-0.387-0.008 0.270-0.151
                      33:-0.109-0.026 0.094-0.468
                      35:-0.307 0.207-0.214 0.114
 
 I=  7/2- (3)  4.081  25:-0.003 0.042-0.055-0.021
                      27: 0.071 0.003-0.045 0.090
                      29:-0.070 0.069-0.078-0.057
                      30:-0.071-0.175 0.257-0.061
                      31: 0.318 0.055-0.280-0.045
                      33:-0.151 0.432 0.370-0.431
                      35: 0.037 0.359 0.066 0.021
 
 I=  7/2- (4)  4.273  26:-0.127 0.012 0.006 0.045
                      27:-0.092 0.115-0.107 0.303
                      28: 0.022-0.078-0.024-0.080
                      29: 0.027 0.035-0.053-0.206
                      30:-0.290 0.011-0.028-0.107
                      31:-0.316 0.346-0.352-0.210
                      33: 0.070 0.275-0.351 0.128
                      35:-0.147-0.079 0.246 0.049
 
 I=  7/2- (5)  4.295  25: 0.142-0.065-0.046 0.031
                      26: 0.045-0.062 0.080-0.004
                      27:-0.025 0.113-0.016-0.345
                      28:-0.001 0.124-0.046-0.106
                      29: 0.094 0.037-0.114 0.238
                      30:-0.199 0.131 0.112-0.087
                      31:-0.204 0.388-0.320 0.231
                      33: 0.289-0.338 0.282-0.121

             ENERGY     K= 9/2   5/2   1/2  -3/2  -7/2
 
 I=  9/2- (1)  3.125  26:-0.004 0.055-0.045 0.065-0.159
                      27: 0.094 0.009-0.013-0.013 0.090
                      28: 0.022-0.157 0.180-0.091-0.002
                      29: 0.450-0.071 0.000 0.033-0.082
                      30: 0.018 0.079-0.049-0.096 0.222
                      31:-0.488 0.170-0.079 0.105-0.139
                      33:-0.026-0.095 0.203-0.262 0.237
                      35:-0.302 0.117-0.004-0.065 0.081
 
 I=  9/2- (2)  4.084  25:-0.014 0.042-0.026-0.024 0.069
                      26:-0.012 0.031-0.019 0.061-0.160
                      27: 0.218-0.061 0.025-0.045 0.106
                      28:-0.008 0.064-0.188 0.037 0.006
                      29: 0.549-0.089 0.009-0.004-0.046
                      30:-0.018-0.000 0.081 0.076 0.031
                      31:-0.163-0.110 0.063-0.119 0.020
                      33: 0.032 0.077-0.373 0.476-0.213
                      35: 0.068-0.174-0.010 0.130-0.050
 
 I=  9/2- (3)  4.341  25:-0.012 0.039-0.052-0.038 0.096
                      26:-0.017-0.029-0.031 0.072-0.003
                      27: 0.026 0.121-0.154 0.057-0.021
                      28: 0.132 0.076-0.063 0.015 0.082
                      29: 0.069-0.050-0.059 0.066 0.026
                      30:-0.016-0.200 0.125 0.060-0.341
                      31:-0.017 0.491-0.498 0.287 0.038
                      33: 0.025 0.138-0.023 0.020-0.266
                      35: 0.055 0.182-0.026-0.080-0.034
 
 I=  9/2- (4)  4.555  25: 0.062 0.080-0.010-0.025 0.002
                      26: 0.116 0.102-0.062-0.014 0.029
                      27: 0.009 0.005-0.025-0.028 0.260
                      28: 0.050-0.054-0.024 0.049-0.113
                      29:-0.056 0.043-0.018 0.094-0.265
                      30: 0.237 0.143-0.224 0.246-0.103
                      31: 0.103-0.123-0.079 0.291-0.487
                      33:-0.207 0.019-0.048 0.086-0.014
                      35: 0.087-0.166 0.157-0.200 0.284
 
 I=  9/2- (5)  4.707  32:-0.012-0.061-0.024 0.060 0.037
                      34:-0.005-0.204-0.596-0.450-0.056
                      36: 0.037 0.360 0.127-0.329-0.128
                      37:-0.019-0.095 0.165 0.014-0.230
                      38:-0.112-0.020 0.102-0.021 0.002

             ENERGY     K= 9/2   5/2   1/2  -3/2  -7/2 -11/2
 
 I= 11/2- (1)  3.433  32:-0.059-0.315-0.611-0.490-0.158-0.014
                      34: 0.074 0.243 0.109-0.243-0.166-0.021
                      36:-0.070-0.073 0.204 0.049-0.081-0.020
                      37: 0.021-0.002-0.027 0.118-0.055-0.033
                      38: 0.041-0.068-0.012-0.001-0.005 0.000
 
 I= 11/2- (2)  4.390  25: 0.115-0.054 0.016 0.005-0.030 0.008
                      26: 0.124-0.080 0.050-0.068 0.097 0.008
                      27: 0.047-0.004-0.006-0.009 0.090-0.396
                      28:-0.004-0.088 0.163-0.164 0.095-0.006
                      29: 0.195-0.066 0.006 0.022-0.088 0.288
                      30: 0.172-0.139 0.023 0.097-0.127-0.002
                      31:-0.217 0.139-0.071 0.080-0.177 0.379
                      33:-0.143 0.201-0.218 0.188-0.110-0.017
                      35:-0.135 0.100-0.031-0.046 0.120-0.209
 
 I= 11/2- (3)  4.557  25:-0.015 0.067-0.026 0.007-0.037-0.042
                      26:-0.007 0.077-0.042-0.051 0.119 0.165
                      27: 0.090-0.005-0.007 0.050-0.159 0.118
                      28:-0.123 0.055-0.029 0.004 0.030 0.013
                      29: 0.416-0.132 0.039-0.074 0.142-0.089
                      30: 0.012 0.127-0.186 0.195-0.133-0.236
                      31:-0.413 0.198 0.008-0.165 0.237-0.131
                      33:-0.025-0.057 0.072-0.024 0.007-0.181
                      35:-0.231 0.145-0.104 0.126-0.145 0.080
 
 I= 11/2- (4)  5.022  32:-0.067-0.212-0.231-0.240-0.141-0.020
                      34: 0.005-0.192-0.164 0.304 0.059-0.010
                      36: 0.094 0.330-0.379 0.107 0.185 0.020
                      37:-0.047-0.054 0.236-0.346 0.270 0.076
                      38:-0.214 0.189-0.094 0.008 0.004-0.005
 
 I= 11/2- (5)  5.243  25:-0.033-0.034 0.073-0.087 0.041 0.045
                      26:-0.024-0.038-0.018 0.053-0.117-0.042
                      27:-0.145 0.088-0.002-0.062 0.100 0.078
                      28:-0.070 0.242 0.041-0.213 0.025 0.003
                      29:-0.329 0.109-0.031 0.002-0.057-0.045
                      30: 0.007-0.106-0.178 0.219 0.190-0.109
                      31: 0.081 0.190-0.017-0.103-0.046-0.037
                      33:-0.072 0.267-0.205-0.050 0.324-0.222
                      35:-0.021 0.286-0.305 0.166 0.009 0.017

             ENERGY     K=13/2   9/2   5/2   1/2  -3/2  -7/2 -11/2
 
 I= 13/2- (1)  3.693  34:-0.002-0.038-0.267-0.595-0.472-0.119-0.010
                      36: 0.005 0.085 0.326 0.129-0.259-0.158-0.020
                      37:-0.002-0.032-0.081 0.032-0.113-0.230-0.038
                      38:-0.002-0.116-0.100 0.019-0.007-0.000 0.001
                      39:-0.001-0.020-0.058-0.021 0.053 0.038 0.004
 
 I= 13/2- (2)  4.328  25:-0.005 0.048-0.048 0.024 0.005-0.038 0.068
                      26:-0.000 0.044-0.056 0.055-0.076 0.130-0.175
                      27: 0.177-0.046-0.000 0.005 0.019-0.068 0.110
                      28: 0.005-0.072 0.131-0.137 0.089-0.027-0.005
                      29: 0.568-0.207 0.061-0.003-0.028 0.058-0.076
                      30: 0.015 0.039-0.062 0.026 0.059-0.137 0.150
                      31:-0.399 0.210-0.112 0.071-0.077 0.095-0.089
                      33:-0.015-0.027 0.083-0.135 0.162-0.152 0.105
                      35:-0.204 0.124-0.062 0.004 0.037-0.053 0.044
 
 I= 13/2- (3)  4.373  32: 0.020 0.196 0.451 0.158-0.395-0.349-0.078
                      34:-0.034-0.249-0.279 0.124-0.061-0.349-0.121
                      36: 0.045 0.210-0.047-0.071 0.148-0.118-0.103
                      37:-0.017-0.050 0.049-0.081 0.017 0.012-0.145
                      38:-0.069-0.018 0.037-0.046 0.015-0.010-0.002
                      39:-0.017-0.065-0.031 0.003 0.002 0.062 0.042
 
 I= 13/2- (4)  5.475  25:-0.004 0.035-0.004-0.006 0.010-0.020 0.056
                      26:-0.000 0.030 0.015-0.033 0.029 0.006-0.138
                      27: 0.170-0.046 0.033-0.024 0.009-0.010 0.087
                      28:-0.013 0.013-0.177 0.237-0.124 0.001-0.007
                      29: 0.429-0.010-0.018-0.005 0.028-0.024-0.046
                      30: 0.002 0.032 0.062-0.049-0.083 0.120 0.075
                      31:-0.159-0.177 0.171-0.130 0.138-0.109-0.019
                      33: 0.005-0.003-0.158 0.345-0.413 0.291-0.044
                      35:-0.010-0.184 0.138-0.003-0.096 0.092-0.005
 
 I= 13/2- (5)  6.102  25:-0.053-0.065-0.002 0.025 0.032-0.080 0.015
                      26:-0.057-0.084 0.039 0.051-0.126 0.107 0.082
                      27: 0.031-0.060-0.033 0.062-0.026 0.049-0.224
                      28: 0.055 0.061-0.089 0.082-0.049-0.003 0.059
                      29: 0.066-0.296 0.145-0.002-0.034-0.033 0.165
                      30:-0.069-0.149 0.195-0.151 0.051 0.080-0.215
                      31: 0.015 0.301-0.373 0.309-0.149-0.049 0.210
                      33: 0.048 0.091-0.134 0.125-0.123 0.157-0.193
                      35: 0.054 0.098-0.106 0.056-0.030 0.062-0.113

             ENERGY     K=13/2   9/2   5/2   1/2  -3/2  -7/2 -11/2
  32 LEVELS    TIME=  0.0 SEC



 ******************* EXCITATION ENERGIES, DOMINANT CONFIGURATION AND EXPECTATION VALUES (WITH S.P. UU+VV FACTORS) *******************

  NR  Eex(keV)  I   Kdom  NY    <Jz>  <Jx**2> <Jy**2> <Jz**2> <I.j>/|I|  <Rx**2> <Ry**2> <Rz**2> <R.j>/|R|  <HROTx> <HROTy> <HROTz>

   1    0.0   5/2-   3/2  33    0.41    1.95    5.53    5.03    2.16       0.35    5.10    3.03   -2.10      0.156   0.349   0.560
   2    0.6   3/2-   1/2  33   -0.32    1.66    5.35    3.48    1.32       0.35    5.55    3.21   -2.63      0.156   0.381   0.594
   3  119.2   3/2-   3/2  33   -0.56    1.13    6.36    3.48    1.13       0.44    6.55    3.35   -2.73      0.197   0.449   0.621
   4  148.8   1/2-   1/2  31    0.77    0.87    4.49    4.20    1.18       0.74    3.84    3.68   -2.97      0.333   0.264   0.682
   5  183.8   1/2-   1/2  33   -0.43    0.78    5.13    2.98   -0.16       0.63    5.63    3.65   -2.87      0.283   0.386   0.676
  
   6  662.1   9/2-   9/2  31    1.65    1.97    5.20   11.57    3.30       0.60    6.60    3.44   -0.71      0.270   0.453   0.637
   7  700.6   7/2-   7/2  31   -0.82    1.94    4.98    6.79    2.12       0.39    7.76    4.45   -1.49      0.175   0.532   0.823
   8  712.0   5/2-   1/2  31    0.47    3.41    2.58    4.35    1.41       1.01    5.64    4.11   -1.88      0.450   0.386   0.762
   9  806.0   5/2-   5/2  33   -0.17    1.68    4.24    4.40    1.04       0.54    7.12    5.28   -2.02      0.241   0.488   0.977
  10  846.6   7/2-   7/2  33   -0.15    2.64    4.46    5.61    1.93       0.52    7.50    5.15   -1.40      0.234   0.514   0.953
  
  11  970.1  11/2-   1/2  32    0.00   45.27   10.88    2.68    6.99       3.27    5.70    1.98   -5.14      1.465   0.390   0.367
  12 1090.9   5/2-   3/2  33    0.32    2.45    4.79    5.30    1.11       1.41    7.93    5.41   -2.41      0.631   0.544   1.001
  13 1230.1  13/2-   1/2  34    0.00   34.44   18.12    7.87    6.80       0.90    9.08    4.21   -3.43      0.404   0.623   0.779
  14 1617.6   7/2-   1/2  33   -0.19    2.41    5.28    4.15    1.27       2.42    9.85    5.22   -1.62      1.085   0.675   0.966
  15 1620.5   9/2-   9/2  29    1.25    2.06    5.09    8.20    2.42       2.05   11.15    2.78   -0.82      0.918   0.764   0.515
  
  16 1622.2   5/2-   5/2  33   -0.01    1.39    5.55    3.80    0.30       2.23    9.69    5.78   -2.34      1.000   0.664   1.070
  17 1809.5   7/2-   3/2  31   -0.56    1.44    3.81    5.89    1.08       2.44   11.66    4.20   -1.60      1.093   0.799   0.778
  18 1831.2   7/2-   1/2  31   -0.64    2.16    3.95    5.72    0.84       1.69   14.66    4.60   -1.86      0.755   1.005   0.852
  19 1865.0  13/2-  13/2  29    2.23    2.11    4.69   14.34    3.74       0.90   10.86    5.89    1.18      0.404   0.745   1.091
  20 1877.3   9/2-   1/2  31    0.40    3.11    2.51    5.32    1.27       1.68   15.65    5.71   -0.96      0.750   1.073   1.057
  
  21 1909.3  13/2-   5/2  32    0.00   43.28   12.32    4.33    6.55       3.34    9.32    4.60   -3.42      1.496   0.639   0.852
  22 1927.0  11/2-  11/2  27   -0.94    2.12    4.50    9.87    2.69       0.77   13.32    6.04   -0.10      0.345   0.913   1.118
  23 2069.4   1/2-   1/2  35    0.51    2.28    3.34    5.29   -0.21       3.52    3.48    5.03   -3.20      1.573   0.239   0.932
  24 2091.6   9/2-   7/2  31   -1.15    2.04    3.59    8.39    1.69       1.45   14.42    6.08   -1.20      0.650   0.989   1.126
  25 2093.9  11/2-   9/2  29    0.89    2.42    3.96   12.49    2.88       1.77   13.57    4.87   -0.37      0.792   0.931   0.902
  
