1SPECTRUM OF (Z= 82 A=207) IN PARTICLE-ROTOR  MODEL WITH MODIFIED OSCILLATOR POTENTIAL


 PARITY=-   EPS= 0.449   GAMMA= 29.1   EPS4=0.000   EPS6=0.000   LEVELS:  25  26  27  28  29  30  31  32  33  34  35  36  37  38  39

 PAIRING FACTORS: GN0= 19.20  GN1=  7.40  IPAIR= 15 ***  E2PLUS(INPUT)=   0.730  E2PLUR(INPUT)=   0.000

 CORIOLIS ATTENUATION PARAMETERS:  CHSI=1.000  ETA=  1.00

 MOMENT OF INERTIA PARAMETERS:   A1=  0.232 MEV   A2=  0.061 MEV   A3=  0.25702 MEV


 DELTA=0.873 MEV  LAMBDA=53.3048 MEV   HW0= 7.5856 MEV   LAMBDA/HW0= 7.0271

 E2ENERGY=0.730 MEV  HBAR**2/B=24919./A**(7/3)=4212.4/A**2 MEV

 IREC=0  =>  RECOIL TERMS j+j-, j+j+, jzjz, ETC TREATED AS ONE-BODY OPERATORS WITH UU+VV PAIRING FACTORS



 S. P. LEVEL   EQP       U     V        (UU + VV)**1.00

     25       3.965    0.111 0.994      1.000 1.000 0.998 0.994 0.983 0.963 0.902 0.760 0.674 0.401 0.315 0.272 0.253 0.247 0.239
     26       3.459    0.127 0.992      1.000 1.000 0.999 0.995 0.986 0.967 0.909 0.771 0.686 0.416 0.331 0.288 0.269 0.263 0.255
     27       2.562    0.173 0.985      0.998 0.999 1.000 0.999 0.993 0.978 0.928 0.800 0.719 0.458 0.374 0.332 0.313 0.307 0.299
     28       2.012    0.223 0.975      0.994 0.995 0.999 1.000 0.998 0.987 0.945 0.829 0.753 0.502 0.420 0.380 0.361 0.355 0.347
     29       1.569    0.291 0.957      0.983 0.986 0.993 0.998 1.000 0.996 0.966 0.866 0.798 0.562 0.483 0.444 0.425 0.420 0.413
     30       1.253    0.376 0.927      0.963 0.967 0.978 0.987 0.996 1.000 0.985 0.908 0.849 0.635 0.560 0.523 0.506 0.500 0.493
     31       0.973    0.529 0.849      0.902 0.909 0.928 0.945 0.966 0.985 1.000 0.966 0.927 0.757 0.694 0.661 0.645 0.640 0.634
     32       0.875    0.730 0.684      0.760 0.771 0.800 0.829 0.866 0.908 0.966 1.000 0.992 0.900 0.856 0.832 0.821 0.817 0.812
     33       0.918    0.809 0.588      0.674 0.686 0.719 0.753 0.798 0.849 0.927 0.992 1.000 0.947 0.914 0.895 0.885 0.882 0.879
     34       1.537    0.955 0.297      0.401 0.416 0.458 0.502 0.562 0.635 0.757 0.900 0.947 1.000 0.996 0.991 0.988 0.987 0.985
     35       2.146    0.978 0.208      0.315 0.331 0.374 0.420 0.483 0.560 0.694 0.856 0.914 0.996 1.000 0.999 0.998 0.997 0.997
     36       2.695    0.986 0.164      0.272 0.288 0.332 0.380 0.444 0.523 0.661 0.832 0.895 0.991 0.999 1.000 1.000 1.000 0.999
     37       3.064    0.990 0.144      0.253 0.269 0.313 0.361 0.425 0.506 0.645 0.821 0.885 0.988 0.998 1.000 1.000 1.000 1.000
     38       3.201    0.990 0.138      0.247 0.263 0.307 0.355 0.420 0.500 0.640 0.817 0.882 0.987 0.997 1.000 1.000 1.000 1.000
     39       3.391    0.992 0.130      0.239 0.255 0.299 0.347 0.413 0.493 0.634 0.812 0.879 0.985 0.997 0.999 1.000 1.000 1.000

  R CORE   ENERGY   A0R/A00=1.000    R3= 0     2  
   2( 1)    0.730                    0.894-0.448
   2( 2)    1.469                    0.448 0.894

  R CORE   ENERGY   A0R/A00=1.000    R3= 0     2  
   3( 1)    2.199                    0.000 1.000

  R CORE   ENERGY   A0R/A00=1.000    R3= 0     2     4  
   4( 1)    1.951                    0.757-0.645 0.106

  R CORE   ENERGY   A0R/A00=1.000    R3= 0     2     4  
   5( 1)    4.389                    0.000 0.894-0.448

  R CORE   ENERGY   A0R/A00=1.000    R3= 0     2     4     6  
   6( 1)    3.658                   -0.686 0.690-0.231 0.025

  R CORE   ENERGY   A0R/A00=1.000    R3= 0     2     4     6  
   7( 1)    7.072                    0.000 0.778-0.609 0.156
 

             ENERGY     K= 1/2
 
 I=  1/2- (1)  3.528  25: 0.175
                      27:-0.115
                      30: 0.521
                      32: 0.744
                      33: 0.096
                      36:-0.243
                      38: 0.251
 
 I=  1/2- (2)  3.844  27: 0.109
                      28:-0.987
                      36:-0.090
                      38:-0.070
 
 I=  1/2- (3)  3.882  27: 0.074
                      28: 0.072
                      30: 0.715
                      32:-0.469
                      33:-0.346
                      36:-0.305
                      38:-0.213
 
 I=  1/2- (4)  5.189  25: 0.090
                      27: 0.319
                      30: 0.128
                      32:-0.371
                      33: 0.347
                      38: 0.784
 
 I=  1/2- (5)  5.311  25: 0.141
                      27: 0.095
                      30: 0.077
                      32:-0.095
                      33: 0.820
                      36:-0.239
                      38:-0.473

             ENERGY     K= 1/2  -3/2
 
 I=  3/2- (1)  3.350  25:-0.029 0.090
                      27:-0.079 0.041
                      28:-0.347-0.023
                      30:-0.183 0.538
                      32: 0.311 0.266
                      33: 0.121 0.527
                      36: 0.131 0.156
                      38: 0.096-0.168
 
 I=  3/2- (2)  3.540  25: 0.158 0.044
                      27: 0.053 0.077
                      28:-0.372-0.081
                      30:-0.087-0.593
                      32: 0.427 0.366
                      33: 0.155-0.238
                      36: 0.151-0.031
                      38: 0.162-0.117

             ENERGY     K= 5/2   1/2  -3/2
 
 I=  5/2- (1)  2.973  25:-0.022-0.004-0.080
                      27: 0.010-0.073 0.160
                      28: 0.009 0.120 0.029
                      30:-0.527 0.070-0.147
                      32:-0.271 0.092 0.196
                      33: 0.679-0.007-0.045
                      36:-0.232-0.035-0.038
 
 I=  5/2- (2)  3.415  25:-0.001 0.106 0.146
                      27:-0.045-0.121 0.009
                      28: 0.083 0.513 0.127
                      30: 0.179 0.232 0.033
                      32: 0.127 0.401 0.488
                      33:-0.145 0.101 0.146
                      36:-0.017-0.198-0.077
                      38: 0.037 0.145-0.204
 
 I=  5/2- (3)  3.760  25:-0.154-0.110-0.055
                      27:-0.260-0.100-0.022
                      28:-0.163-0.007 0.192
                      30:-0.015-0.073-0.508
                      32: 0.449 0.142-0.071
                      33: 0.039 0.116-0.467
                      36: 0.091 0.026-0.199
                      38: 0.216-0.011 0.036
 
 I=  5/2- (4)  4.111  25:-0.033-0.090 0.001
                      27:-0.192 0.109 0.074
                      28:-0.050 0.121-0.062
                      30: 0.024-0.269 0.154
                      32: 0.428-0.516 0.325
                      33: 0.186-0.104 0.254
                      36:-0.091 0.137 0.060
                      38: 0.286-0.065-0.195
 
 I=  5/2- (5)  4.168  25: 0.019 0.220-0.051
                      27:-0.100 0.065-0.097
                      28:-0.139-0.102 0.293
                      30:-0.153 0.182 0.548
                      32: 0.322 0.289-0.350
                      33: 0.229-0.000 0.156
                      36: 0.047-0.059-0.056
                      38: 0.228-0.011 0.076

             ENERGY     K= 5/2   1/2  -3/2  -7/2
 
 I=  7/2- (1)  3.325  25: 0.141-0.018-0.022 0.007
                      27: 0.184-0.032 0.029 0.019
                      28: 0.045-0.084 0.090 0.013
                      30: 0.112-0.025 0.061-0.636
                      32:-0.168 0.032 0.057 0.125
                      33:-0.181 0.025 0.068-0.553
                      36: 0.043 0.015 0.006-0.313
                      38:-0.091 0.030-0.038 0.043
 
 I=  7/2- (2)  3.556  25: 0.020 0.057-0.113-0.134
                      27: 0.025 0.025 0.136 0.242
                      28:-0.111-0.015 0.065 0.042
                      30: 0.457-0.018-0.192 0.095
                      32: 0.207-0.100 0.175 0.220
                      33:-0.607 0.070-0.102 0.170
                      36: 0.220 0.000-0.061 0.047
                      38:-0.031-0.009-0.006-0.120
 
 I=  7/2- (3)  3.972  26:-0.018 0.362 0.076-0.006
                      29: 0.005 0.542-0.325-0.033
                      31:-0.229 0.491 0.132-0.009
                      34: 0.055 0.014 0.309-0.047
                      35:-0.058-0.087-0.066-0.014
                      37:-0.063-0.062-0.017-0.024
                      39: 0.158-0.020-0.008 0.002
 
 I=  7/2- (4)  4.160  25:-0.037-0.075 0.128-0.014
                      27: 0.106-0.008-0.111 0.256
                      28:-0.307-0.039 0.194 0.066
                      30:-0.285-0.019 0.173 0.004
                      32:-0.290-0.121 0.167 0.543
                      33: 0.159-0.062 0.108 0.195
                      36: 0.055 0.015-0.066-0.022
                      38:-0.141 0.014-0.016-0.330
 
 I=  7/2- (5)  4.250  25:-0.048-0.075 0.128 0.047
                      27:-0.006 0.029 0.081-0.204
                      28:-0.127-0.209 0.201-0.019
                      30:-0.056-0.094 0.123 0.099
                      32:-0.010-0.266 0.640-0.352
                      33:-0.059-0.085 0.229-0.042
                      36: 0.128 0.082-0.095 0.046
                      38:-0.016-0.045-0.200 0.203

             ENERGY     K= 9/2   5/2   1/2  -3/2  -7/2
 
 I=  9/2- (1)  2.990  25: 0.014 0.022-0.005-0.027 0.109
                      27:-0.003 0.045-0.031 0.061-0.188
                      30: 0.458-0.073 0.014-0.035 0.106
                      32: 0.246-0.080 0.020 0.048-0.176
                      33:-0.692 0.096-0.004-0.011 0.038
                      36: 0.337-0.037-0.004-0.009 0.054
                      38:-0.032-0.014 0.011-0.016 0.051
 
 I=  9/2- (2)  4.057  26: 0.002 0.104 0.006-0.110-0.026
                      29: 0.001 0.062-0.437-0.542-0.018
                      31: 0.002 0.433 0.405-0.046-0.038
                      34: 0.006-0.043 0.000-0.183-0.243
                      35: 0.011 0.088 0.003-0.085-0.041
                      37:-0.022 0.000 0.040-0.025-0.057
                      39: 0.091 0.086-0.018 0.005 0.002
 
 I=  9/2- (3)  4.166  25:-0.102-0.152 0.068-0.040 0.001
                      27:-0.117-0.189 0.058 0.027 0.022
                      30: 0.047-0.137 0.026 0.137-0.592
                      32: 0.135 0.149-0.077 0.054 0.137
                      33:-0.073 0.219-0.075 0.147-0.505
                      36: 0.055-0.069 0.004 0.045-0.294
                      38: 0.031 0.080-0.016-0.029 0.023
 
 I=  9/2- (4)  4.386  25:-0.015 0.050-0.023 0.043 0.152
                      27:-0.014 0.016 0.165-0.171-0.191
                      28:-0.014-0.049-0.249-0.059-0.025
                      30: 0.049 0.417-0.243 0.249-0.076
                      32: 0.040 0.211-0.235-0.280-0.081
                      33:-0.078-0.490 0.014 0.081-0.102
                      36: 0.045 0.169 0.104 0.070-0.044
                      38:-0.001 0.002-0.066 0.068 0.029
 
 I=  9/2- (5)  4.561  25: 0.007 0.022-0.055-0.100-0.039
                      27:-0.014-0.043 0.080-0.019 0.207
                      28: 0.052 0.211-0.474 0.052 0.068
                      30: 0.099-0.153-0.079-0.044 0.079
                      32: 0.055 0.028-0.226-0.291 0.405
                      33:-0.101 0.244-0.099-0.131 0.208
                      36: 0.006-0.071 0.146 0.010 0.009
                      38: 0.012 0.085-0.157 0.205-0.248

             ENERGY     K= 9/2   5/2   1/2  -3/2  -7/2 -11/2
 
 I= 11/2- (1)  3.717  26:-0.007-0.054-0.435-0.188-0.019-0.002
                      29:-0.004-0.055-0.338 0.514 0.136 0.004
                      31: 0.065 0.475-0.116-0.074 0.026 0.003
                      34:-0.001-0.058 0.031-0.062 0.261 0.034
                      35: 0.030 0.081-0.083 0.041 0.063 0.006
                      37:-0.024 0.040-0.006-0.032 0.071 0.007
                      39: 0.126-0.022 0.004 0.000-0.002 0.000
 
 I= 11/2- (2)  3.990  25:-0.033-0.024 0.033-0.064 0.113 0.088
                      27:-0.026-0.043 0.009 0.089-0.187-0.130
                      30:-0.429 0.139-0.006-0.069 0.132 0.016
                      32:-0.206 0.116-0.053 0.092-0.186-0.088
                      33: 0.644-0.192 0.036-0.032 0.060-0.015
                      36:-0.311 0.075-0.002-0.025 0.068 0.008
 
 I= 11/2- (3)  4.822  26: 0.025 0.246 0.111 0.260 0.105 0.006
                      29: 0.013 0.152-0.418 0.001-0.253-0.028
                      31:-0.190-0.099-0.531-0.071 0.022-0.005
                      34: 0.029-0.030-0.049-0.413-0.066-0.058
                      35:-0.043 0.023 0.076 0.032-0.048-0.016
                      37:-0.021 0.045 0.082 0.018-0.003-0.021
                      39: 0.006-0.214-0.039-0.003-0.001 0.001
 
 I= 11/2- (4)  4.871  25:-0.056 0.127-0.051-0.002 0.024-0.042
                      27:-0.083 0.172-0.070 0.034-0.034 0.030
                      28:-0.025 0.072-0.155 0.141-0.020-0.000
                      30:-0.046 0.063-0.056 0.144-0.396 0.424
                      32: 0.080-0.195 0.066 0.059 0.019-0.061
                      33: 0.095-0.123 0.020 0.132-0.366 0.394
                      36:-0.038 0.026 0.022 0.024-0.198 0.239
                      38: 0.059-0.099 0.066-0.066 0.062-0.046
 
 I= 11/2- (5)  5.387  25:-0.116-0.063-0.010 0.046 0.128-0.101
                      27:-0.124-0.141 0.049-0.042-0.249 0.173
                      28:-0.048 0.193 0.064-0.169-0.086 0.023
                      30:-0.023-0.272 0.085-0.017 0.214 0.232
                      32: 0.101 0.013 0.134-0.187-0.313 0.119
                      33: 0.047 0.430-0.125-0.012 0.083 0.270
                      36:-0.020-0.184-0.005 0.055 0.110 0.129
                      38: 0.039 0.084-0.025 0.002 0.125-0.109

             ENERGY     K=13/2   9/2   5/2   1/2  -3/2  -7/2 -11/2
 
 I= 13/2- (1)  4.355  26:-0.001-0.009 0.053-0.005-0.061-0.003 0.004
                      29: 0.000-0.001 0.018-0.420-0.496-0.041-0.004
                      31: 0.003 0.019 0.414 0.415-0.000-0.034-0.000
                      34:-0.001 0.006-0.043-0.047-0.259-0.280-0.011
                      35:-0.001 0.010 0.096 0.005-0.108-0.051-0.001
                      37: 0.002-0.026-0.009 0.039-0.035-0.061 0.003
                      39:-0.007 0.124 0.165 0.028 0.007 0.002 0.000
 
 I= 13/2- (2)  4.704  25: 0.008-0.003-0.020 0.004 0.041-0.091 0.054
                      27:-0.003 0.015-0.057 0.067-0.103 0.167-0.100
                      28:-0.005-0.005 0.059-0.072 0.021 0.030-0.019
                      30: 0.335-0.265 0.106-0.043 0.062-0.100 0.057
                      32: 0.185-0.157 0.107-0.036-0.077 0.168-0.098
                      33:-0.529 0.398-0.133 0.014 0.018-0.036 0.023
                      36: 0.283-0.198 0.053 0.004 0.017-0.053 0.036
                      38:-0.028 0.010 0.020-0.024 0.031-0.052 0.037
 
 I= 13/2- (3)  4.782  26:-0.005-0.062-0.343-0.138 0.340 0.176 0.021
                      29:-0.002-0.033-0.243 0.193-0.015-0.462-0.072
                      31: 0.023 0.380 0.254-0.190 0.095 0.021-0.015
                      34: 0.000-0.046-0.015-0.012 0.043-0.206-0.201
                      35: 0.012 0.100-0.006-0.025 0.047-0.093-0.047
                      37:-0.012 0.004 0.022-0.033 0.039-0.045-0.058
                      39: 0.064 0.130-0.009 0.017-0.002 0.003 0.001
 
 I= 13/2- (4)  5.419  25:-0.008-0.053 0.005-0.006 0.048-0.031-0.176
                      27:-0.002-0.060-0.032 0.090-0.121 0.069 0.267
                      28: 0.012 0.046 0.030-0.080 0.005 0.034 0.049
                      30:-0.265-0.280 0.200-0.106 0.115-0.106-0.063
                      32:-0.143-0.096 0.128-0.059-0.100 0.108 0.198
                      33: 0.417 0.408-0.236 0.036 0.037-0.059 0.007
                      36:-0.225-0.189 0.081 0.010 0.025-0.054-0.037
                      38: 0.024 0.036 0.007-0.023 0.029-0.023-0.063
 
 I= 13/2- (5)  5.852  25:-0.052-0.057 0.135-0.089 0.052-0.039 0.022
                      27:-0.055-0.082 0.179-0.104 0.007 0.021 0.000
                      30: 0.031-0.083 0.065 0.022-0.183 0.409-0.387
                      32: 0.062 0.054-0.182 0.149-0.040-0.066 0.088
                      33:-0.051 0.150-0.157 0.117-0.187 0.364-0.346
                      36: 0.035-0.065 0.058-0.025-0.064 0.208-0.217
                      38: 0.008 0.055-0.082 0.031 0.019-0.032 0.023

             ENERGY     K=13/2   9/2   5/2   1/2  -3/2  -7/2 -11/2
  32 LEVELS    TIME=  0.0 SEC



 ******************* EXCITATION ENERGIES, DOMINANT CONFIGURATION AND EXPECTATION VALUES (WITH S.P. UU+VV FACTORS) *******************

  NR  Eex(keV)  I   Kdom  NY    <Jz>  <Jx**2> <Jy**2> <Jz**2> <I.j>/|I|  <Rx**2> <Ry**2> <Rz**2> <R.j>/|R|  <HROTx> <HROTy> <HROTz>

   1    0.0   5/2-   5/2  33    2.79    2.97    2.08   14.22    3.21       2.63    2.47    3.90   -3.25      0.610   0.150   1.002
   2   17.3   9/2-   9/2  33    2.94    2.91    2.13   15.22    3.53       2.75    4.05    3.05   -0.85      0.636   0.247   0.783
   3  352.5   7/2-   7/2  30   -1.96    2.70    2.72   11.24    2.70       2.28    4.27    4.41   -1.79      0.528   0.260   1.132
   4  377.4   3/2-   3/2  30   -1.35    2.50    5.17    8.05    1.88       2.00    5.54    4.66   -3.46      0.464   0.338   1.198
   5  442.0   5/2-   1/2  28   -0.02    4.68    7.02    4.36    1.93       2.01    8.05    3.35   -2.83      0.466   0.491   0.862
  
   6  555.6   1/2-   1/2  32    0.57    4.00    4.24    4.73    0.83       3.33    4.54    4.41   -3.50      0.771   0.277   1.132
   7  566.9   3/2-   3/2  30   -1.02    2.75    5.53    6.64    1.42       2.55    6.11    4.53   -3.35      0.591   0.372   1.164
   8  582.9   7/2-   5/2  33    1.54    3.31    2.82   13.78    2.72       3.34    6.94    3.80   -2.43      0.774   0.423   0.976
   9  744.1  11/2-   3/2  29    0.05   24.95   18.97    3.43    5.82       4.80    7.78    0.89   -3.42      1.113   0.474   0.228
  10  786.8   5/2-   3/2  30   -0.47    2.91    5.19    8.88    1.81       2.39    7.89    4.73   -3.00      0.555   0.481   1.215
  
  11  871.6   1/2-   1/2  28    0.40    2.84   13.26    2.03    0.85       2.27   13.25    1.87   -4.17      0.526   0.808   0.481
  12  909.0   1/2-   1/2  30    0.72    2.91    3.83    6.30    0.36       3.35    3.99    5.83   -3.51      0.775   0.244   1.499
  13  999.3   7/2-   1/2  29    0.21   13.02   19.97    2.17    4.41       6.38    8.54    1.03   -4.43      1.479   0.521   0.264
  14 1016.8  11/2-   9/2  33    2.48    3.18    2.31   14.84    3.05       4.51   11.79    3.28   -0.47      1.046   0.719   0.844
  15 1084.5   9/2-   3/2  29    0.04   23.88   20.00    4.38    5.32       4.74   12.37    2.94   -4.86      1.099   0.754   0.757
  
  16 1138.6   5/2-   1/2  32    0.18    3.48    6.56    5.78    0.87       3.85   11.16    4.41   -3.01      0.893   0.680   1.135
  17 1187.2   7/2-   7/2  32   -0.81    4.13    6.80    6.55    2.13       3.80    7.89    4.60   -2.23      0.880   0.481   1.183
  18 1192.9   9/2-   7/2  30   -1.48    2.92    2.81   11.37    2.29       3.79   10.64    4.61   -1.30      0.878   0.649   1.185
  19 1194.9   5/2-   3/2  30   -0.33    3.04    5.46    6.14    1.10       3.55    8.01    5.31   -2.77      0.822   0.488   1.365
  20 1277.5   7/2-   3/2  32   -1.25    4.75    6.73    6.01    1.34       3.89   14.71    3.99   -2.56      0.900   0.897   1.026
  
  21 1382.7  13/2-   3/2  29    0.01   27.29   18.40    5.59    5.55       5.39   14.11    3.01   -2.64      1.248   0.860   0.773
  22 1412.8   9/2-   5/2  33    1.14    3.67    3.38   11.34    2.27       5.52   11.23    3.84   -1.57      1.279   0.685   0.988
  23 1588.2   9/2-   1/2  28   -0.47    3.90    7.89    6.22    1.72       3.55   18.63    3.46   -1.87      0.822   1.136   0.889
  24 1730.7  13/2-  13/2  33    2.72    2.96    2.41   14.94    3.19       2.87   14.79    6.87    0.39      0.665   0.902   1.767
  25 1808.8  13/2-   7/2  29    0.01   33.57   15.05    4.41    5.86       4.19   11.54    4.21   -2.71      0.972   0.703   1.083
  
  26 1849.4  11/2-   1/2  31    0.11   29.18   13.40    4.38    5.21       6.83   10.26    3.32   -3.50      1.583   0.626   0.854
  27 1897.7  11/2-  11/2  30   -1.78    2.54    3.52   10.86    2.30       2.67   15.36    7.14   -0.63      0.619   0.936   1.836
