1SPECTRUM OF (Z= 82 A=207) IN PARTICLE-ROTOR  MODEL WITH MODIFIED OSCILLATOR POTENTIAL


 PARITY=-   EPS= 0.451   GAMMA= 30.0   EPS4=0.000   EPS6=0.000   LEVELS:  24  25  26  27  28  29  30  31  32  33  34  35  36  37  38

 PAIRING FACTORS: GN0= 19.20  GN1=  7.40  IPAIR= 15 ***  E2PLUS(INPUT)=   0.730  E2PLUR(INPUT)=   0.000

 CORIOLIS ATTENUATION PARAMETERS:  CHSI=0.000  ETA=  0.00

     FOR ETA .NE. 1, THE ANGULAR MOMENTUM EXPECTATION VALUES OF THE ENERGY EIGENSTATES ARE CALCULATED ONLY APPROXIMATELY

 MOMENT OF INERTIA PARAMETERS:   A1=  0.243 MEV   A2=  0.061 MEV   A3=  0.24333 MEV


 DELTA=0.881 MEV  LAMBDA=53.3000 MEV   HW0= 7.5864 MEV   LAMBDA/HW0= 7.0258

 E2ENERGY=0.730 MEV  HBAR**2/B=25091./A**(7/3)=4241.6/A**2 MEV

 IREC=0  =>  RECOIL TERMS j+j-, j+j+, jzjz, ETC TREATED AS ONE-BODY OPERATORS WITH UU+VV PAIRING FACTORS



 S. P. LEVEL   EQP       U     V        (UU + VV)**0.00

     24       4.547    0.097 0.995      1.000 1.000 1.000 1.000 1.000 1.000 1.000 1.000 1.000 1.000 1.000 1.000 1.000 1.000 1.000
     25       4.034    0.110 0.994      1.000 1.000 1.000 1.000 1.000 1.000 1.000 1.000 1.000 1.000 1.000 1.000 1.000 1.000 1.000
     26       3.459    0.128 0.992      1.000 1.000 1.000 1.000 1.000 1.000 1.000 1.000 1.000 1.000 1.000 1.000 1.000 1.000 1.000
     27       2.573    0.174 0.985      1.000 1.000 1.000 1.000 1.000 1.000 1.000 1.000 1.000 1.000 1.000 1.000 1.000 1.000 1.000
     28       1.932    0.235 0.972      1.000 1.000 1.000 1.000 1.000 1.000 1.000 1.000 1.000 1.000 1.000 1.000 1.000 1.000 1.000
     29       1.532    0.302 0.953      1.000 1.000 1.000 1.000 1.000 1.000 1.000 1.000 1.000 1.000 1.000 1.000 1.000 1.000 1.000
     30       1.344    0.350 0.937      1.000 1.000 1.000 1.000 1.000 1.000 1.000 1.000 1.000 1.000 1.000 1.000 1.000 1.000 1.000
     31       0.977    0.533 0.846      1.000 1.000 1.000 1.000 1.000 1.000 1.000 1.000 1.000 1.000 1.000 1.000 1.000 1.000 1.000
     32       0.885    0.741 0.672      1.000 1.000 1.000 1.000 1.000 1.000 1.000 1.000 1.000 1.000 1.000 1.000 1.000 1.000 1.000
     33       0.915    0.797 0.604      1.000 1.000 1.000 1.000 1.000 1.000 1.000 1.000 1.000 1.000 1.000 1.000 1.000 1.000 1.000
     34       1.532    0.953 0.302      1.000 1.000 1.000 1.000 1.000 1.000 1.000 1.000 1.000 1.000 1.000 1.000 1.000 1.000 1.000
     35       2.213    0.979 0.203      1.000 1.000 1.000 1.000 1.000 1.000 1.000 1.000 1.000 1.000 1.000 1.000 1.000 1.000 1.000
     36       2.696    0.986 0.166      1.000 1.000 1.000 1.000 1.000 1.000 1.000 1.000 1.000 1.000 1.000 1.000 1.000 1.000 1.000
     37       3.089    0.990 0.144      1.000 1.000 1.000 1.000 1.000 1.000 1.000 1.000 1.000 1.000 1.000 1.000 1.000 1.000 1.000
     38       3.312    0.991 0.134      1.000 1.000 1.000 1.000 1.000 1.000 1.000 1.000 1.000 1.000 1.000 1.000 1.000 1.000 1.000

  R CORE   ENERGY   A0R/A00=1.000    R3= 0     2  
   2( 1)    0.730                    0.866-0.500
   2( 2)    1.460                    0.500 0.866

  R CORE   ENERGY   A0R/A00=1.000    R3= 0     2  
   3( 1)    2.190                    0.000 1.000

  R CORE   ENERGY   A0R/A00=1.000    R3= 0     2     4  
   4( 1)    1.947                    0.740-0.661 0.125

  R CORE   ENERGY   A0R/A00=1.000    R3= 0     2     4  
   5( 1)    4.380                    0.000 0.866-0.500

  R CORE   ENERGY   A0R/A00=1.000    R3= 0     2     4     6  
   6( 1)    3.650                   -0.672 0.695-0.254 0.031

  R CORE   ENERGY   A0R/A00=1.000    R3= 0     2     4     6  
   7( 1)    7.057                    0.000 0.747-0.637 0.187
 

             ENERGY     K= 1/2
 
 I=  1/2- (1)  3.823  28: 1.000
 
 I=  1/2- (2)  4.344  32: 1.000
 
 I=  1/2- (3)  4.350  30: 1.000
 
 I=  1/2- (4)  4.923  33: 1.000
 
 I=  1/2- (5)  5.215  38: 1.000

             ENERGY     K= 1/2  -3/2
 
 I=  3/2- (1)  4.448  28: 0.767-0.641
 
 I=  3/2- (2)  4.612  32: 0.811-0.585

             ENERGY     K= 5/2   1/2  -3/2
 
 I=  5/2- (1)  4.564  28:-0.328 0.944-0.012
 
 I=  5/2- (2)  5.133  30: 0.264-0.815 0.516
 
 I=  5/2- (3)  5.181  28: 0.757 0.271 0.595
 
 I=  5/2- (4)  5.364  32: 0.363-0.873 0.327
 
 I=  5/2- (5)  5.537  38:-0.057-0.562 0.825

             ENERGY     K= 5/2   1/2  -3/2  -7/2
 
 I=  7/2- (1)  5.488  28:-0.023-0.663 0.740-0.113
 
 I=  7/2- (2)  5.560  32: 0.286-0.723 0.613-0.142
 
 I=  7/2- (3)  5.867  30:-0.093 0.606-0.759 0.221
 
 I=  7/2- (4)  6.059  28: 0.926-0.252-0.224-0.172
 
 I=  7/2- (5)  6.349  33: 0.603-0.738 0.302-0.023

             ENERGY     K= 9/2   5/2   1/2  -3/2  -7/2
 
 I=  9/2- (1)  5.889  28:-0.101 0.566-0.771 0.271 0.036
 
 I=  9/2- (2)  6.389  30:-0.066 0.390-0.711 0.555-0.171
 
 I=  9/2- (3)  6.840  38:-0.016-0.107 0.582-0.745 0.307
 
 I=  9/2- (4)  6.853  32:-0.092 0.479-0.738 0.455-0.096
 
 I=  9/2- (5)  7.105  33:-0.139 0.545-0.702 0.421-0.112

             ENERGY     K= 9/2   5/2   1/2  -3/2  -7/2 -11/2
 
 I= 11/2- (1)  5.798  26: 0.040 0.330 0.742 0.565 0.137 0.006
 
 I= 11/2- (2)  6.995  32:-0.088 0.371-0.663 0.592-0.253 0.035
 
 I= 11/2- (3)  7.104  28: 0.005-0.221 0.644-0.676 0.279-0.032
 
 I= 11/2- (4)  7.129  24: 0.002-0.002 0.009-0.053 0.246-0.968
 
 I= 11/2- (5)  7.532  30: 0.020-0.217 0.593-0.688 0.353-0.057

             ENERGY     K=13/2   9/2   5/2   1/2  -3/2  -7/2 -11/2
 
 I= 13/2- (1)  7.511  26: 0.007 0.180 0.618 0.250-0.598-0.403-0.050
 
 I= 13/2- (2)  7.696  28: 0.027-0.225 0.588-0.689 0.354-0.041-0.018
 
 I= 13/2- (3)  8.131  30: 0.016-0.144 0.430-0.653 0.550-0.250 0.051
 
 I= 13/2- (4)  8.636  38: 0.004 0.016-0.211 0.568-0.682 0.397-0.097
 
 I= 13/2- (5)  8.689  24: 0.001 0.003 0.000-0.023 0.123-0.414 0.902

             ENERGY     K=13/2   9/2   5/2   1/2  -3/2  -7/2 -11/2
  32 LEVELS    TIME=  0.0 SEC



 ******************* EXCITATION ENERGIES, DOMINANT CONFIGURATION AND EXPECTATION VALUES (WITH S.P. UU+VV FACTORS) *******************

  NR  Eex(keV)  I   Kdom  NY    <Jz>  <Jx**2> <Jy**2> <Jz**2> <I.j>/|I|  <Rx**2> <Ry**2> <Rz**2> <R.j>/|R|  <HROTx> <HROTy> <HROTz>

   1    0.0   1/2-   1/2  28    0.38    2.90   13.28    2.14    0.68       2.39   13.49    2.01   -4.19      0.581   0.820   0.490
   2  520.9   1/2-   1/2  32    0.04    3.90    6.08    8.31   -0.22       3.96    6.94    8.52   -4.19      0.963   0.422   2.073
   3  526.5   1/2-   1/2  30   -0.24    2.84    0.91    8.88    0.24       2.79    0.82    9.36   -3.45      0.678   0.050   2.278
   4  624.9   3/2-   1/2  28    0.38    2.90   13.28    2.14    0.01       2.98   15.60    3.45   -3.90      0.726   0.949   0.841
   5  740.8   5/2-   1/2  28    0.38    2.90   13.28    2.14    0.45       3.79   18.11    2.50   -3.44      0.922   1.102   0.608
  
   6  788.8   3/2-   1/2  32    0.04    3.90    6.08    8.31    0.47       4.43    6.52    9.26   -3.87      1.077   0.397   2.253
   7 1100.3   1/2-   1/2  33    0.61    2.67    3.20   12.95    0.33       3.04    3.37   12.59   -4.25      0.740   0.205   3.063
   8 1310.1   5/2-   1/2  30   -0.24    2.84    0.91    8.88    0.29       4.08    5.45   10.13   -2.65      0.994   0.331   2.464
   9 1358.1   5/2-   5/2  28    0.38    2.90   13.28    2.14    0.54       4.01   14.07    5.83   -3.42      0.975   0.856   1.418
  10 1392.1   1/2-   1/2  38   -0.37    1.38    9.48    2.56   -0.49       2.23    9.62    3.18   -3.57      0.543   0.585   0.774
  
  11 1541.4   5/2-   1/2  32    0.04    3.90    6.08    8.31   -0.41       5.21   14.72    9.52   -3.59      1.268   0.895   2.316
  12 1665.3   7/2-   3/2  28    0.38    2.90   13.28    2.14    0.11       4.31   24.73    4.13   -3.10      1.048   1.504   1.004
  13 1713.4   5/2-   3/2  38   -0.37    1.38    9.48    2.56    0.36       1.94   14.53    3.57   -2.76      0.473   0.884   0.868
  14 1736.9   7/2-   1/2  32    0.04    3.90    6.08    8.31    0.54       5.63   14.10   10.06   -2.96      1.369   0.858   2.447
  15 1974.9  11/2-   1/2  26    0.08   42.43    8.12    1.24    5.75       3.51   12.24    3.04   -4.02      0.854   0.745   0.740
  
  16 2043.8   7/2-   3/2  30   -0.24    2.84    0.91    8.88   -0.13       4.47   14.39   10.52   -2.42      1.087   0.875   2.561
  17 2066.2   9/2-   1/2  28    0.38    2.90   13.28    2.14    0.30       4.40   31.82    3.90   -2.66      1.072   1.936   0.950
  18 2235.8   7/2-   5/2  28    0.38    2.90   13.28    2.14    0.35       5.69   19.15    6.48   -3.03      1.384   1.165   1.577
  19 2525.5   7/2-   1/2  33    0.61    2.67    3.20   12.95    0.13       4.30   14.93   14.30   -3.16      1.046   0.908   3.480
  20 2565.8   9/2-   1/2  30   -0.24    2.84    0.91    8.88    0.31       5.08   18.09   11.14   -1.89      1.235   1.100   2.710
  
  21 3017.3   9/2-   3/2  38   -0.37    1.38    9.48    2.56    0.28       3.10   27.89    4.42   -2.02      0.755   1.697   1.076
  22 3029.7   9/2-   1/2  32    0.04    3.90    6.08    8.31   -0.49       6.15   31.16   10.59   -2.99      1.496   1.895   2.576
  23 3171.7  11/2-   1/2  32    0.04    3.90    6.08    8.31    0.56       6.63   29.68   11.06   -2.17      1.613   1.806   2.691
  24 3280.6  11/2-   3/2  28    0.38    2.90   13.28    2.14    0.02       5.37   43.36    5.04   -2.48      1.307   2.638   1.227
  25 3281.5   9/2-   1/2  33    0.61    2.67    3.20   12.95    0.14       4.92   22.28   14.94   -2.79      1.198   1.355   3.636
  
  26 3306.2  11/2-  11/2  24   -4.55    3.31    2.13   23.84    4.08       4.68    7.43    4.07   -1.21      1.139   0.452   0.991
  27 3687.6  13/2-   5/2  26    0.08   42.43    8.12    1.24    4.82       3.95   22.13    7.17   -3.15      0.961   1.346   1.745
  28 3709.3  11/2-   3/2  30   -0.24    2.84    0.91    8.88   -0.19       5.48   33.64   11.54   -1.93      1.333   2.047   2.809
  29 3873.1  13/2-   1/2  28    0.38    2.90   13.28    2.14    0.23       5.39   53.49    4.93   -2.09      1.311   3.254   1.199
  30 4307.9  13/2-   1/2  30   -0.24    2.84    0.91    8.88    0.32       6.08   38.72   12.14   -1.38      1.479   2.356   2.953
  
  31 4812.5  13/2-   3/2  38   -0.37    1.38    9.48    2.56    0.23       4.10   49.37    5.44   -1.54      0.998   3.003   1.323
  32 4866.0  13/2-  11/2  24   -4.55    3.31    2.13   23.84    3.32       7.92   19.54    4.21   -1.08      1.928   1.189   1.025
