1SPECTRUM OF (Z= 82 A=207) IN PARTICLE-ROTOR  MODEL WITH MODIFIED OSCILLATOR POTENTIAL


 PARITY=-   EPS= 0.337   GAMMA= 30.0   EPS4=0.000   EPS6=0.000   LEVELS:  24  25  26  27  28  29  30  31  32  33  34  35  36  37  38

 PAIRING FACTORS: GN0= 19.20  GN1=  7.40  IPAIR= 15 ***  E2PLUS(INPUT)=   0.730  E2PLUR(INPUT)=   0.000

 CORIOLIS ATTENUATION PARAMETERS:  CHSI=0.000  ETA=  0.00

     FOR ETA .NE. 1, THE ANGULAR MOMENTUM EXPECTATION VALUES OF THE ENERGY EIGENSTATES ARE CALCULATED ONLY APPROXIMATELY

 MOMENT OF INERTIA PARAMETERS:   A1=  0.243 MEV   A2=  0.061 MEV   A3=  0.24333 MEV


 DELTA=0.869 MEV  LAMBDA=53.3558 MEV   HW0= 7.5068 MEV   LAMBDA/HW0= 7.1076

 E2ENERGY=0.730 MEV  HBAR**2/B=14009./A**(7/3)=2368.3/A**2 MEV

 IREC=0  =>  RECOIL TERMS j+j-, j+j+, jzjz, ETC TREATED AS ONE-BODY OPERATORS WITH UU+VV PAIRING FACTORS



 S. P. LEVEL   EQP       U     V        (UU + VV)**0.00

     24       5.029    0.087 0.996      1.000 1.000 1.000 1.000 1.000 1.000 1.000 1.000 1.000 1.000 1.000 1.000 1.000 1.000 1.000
     25       4.321    0.101 0.995      1.000 1.000 1.000 1.000 1.000 1.000 1.000 1.000 1.000 1.000 1.000 1.000 1.000 1.000 1.000
     26       3.375    0.130 0.992      1.000 1.000 1.000 1.000 1.000 1.000 1.000 1.000 1.000 1.000 1.000 1.000 1.000 1.000 1.000
     27       2.735    0.161 0.987      1.000 1.000 1.000 1.000 1.000 1.000 1.000 1.000 1.000 1.000 1.000 1.000 1.000 1.000 1.000
     28       2.111    0.211 0.978      1.000 1.000 1.000 1.000 1.000 1.000 1.000 1.000 1.000 1.000 1.000 1.000 1.000 1.000 1.000
     29       1.683    0.268 0.963      1.000 1.000 1.000 1.000 1.000 1.000 1.000 1.000 1.000 1.000 1.000 1.000 1.000 1.000 1.000
     30       1.514    0.301 0.954      1.000 1.000 1.000 1.000 1.000 1.000 1.000 1.000 1.000 1.000 1.000 1.000 1.000 1.000 1.000
     31       1.457    0.314 0.949      1.000 1.000 1.000 1.000 1.000 1.000 1.000 1.000 1.000 1.000 1.000 1.000 1.000 1.000 1.000
     32       0.921    0.815 0.579      1.000 1.000 1.000 1.000 1.000 1.000 1.000 1.000 1.000 1.000 1.000 1.000 1.000 1.000 1.000
     33       1.138    0.907 0.421      1.000 1.000 1.000 1.000 1.000 1.000 1.000 1.000 1.000 1.000 1.000 1.000 1.000 1.000 1.000
     34       1.354    0.940 0.341      1.000 1.000 1.000 1.000 1.000 1.000 1.000 1.000 1.000 1.000 1.000 1.000 1.000 1.000 1.000
     35       1.540    0.955 0.295      1.000 1.000 1.000 1.000 1.000 1.000 1.000 1.000 1.000 1.000 1.000 1.000 1.000 1.000 1.000
     36       2.331    0.982 0.190      1.000 1.000 1.000 1.000 1.000 1.000 1.000 1.000 1.000 1.000 1.000 1.000 1.000 1.000 1.000
     37       3.065    0.990 0.143      1.000 1.000 1.000 1.000 1.000 1.000 1.000 1.000 1.000 1.000 1.000 1.000 1.000 1.000 1.000
     38       3.454    0.992 0.127      1.000 1.000 1.000 1.000 1.000 1.000 1.000 1.000 1.000 1.000 1.000 1.000 1.000 1.000 1.000

  R CORE   ENERGY   A0R/A00=1.000    R3= 0     2  
   2( 1)    0.730                    0.866-0.500
   2( 2)    1.460                    0.500 0.866

  R CORE   ENERGY   A0R/A00=1.000    R3= 0     2  
   3( 1)    2.190                    0.000 1.000

  R CORE   ENERGY   A0R/A00=1.000    R3= 0     2     4  
   4( 1)    1.947                    0.740-0.661 0.125

  R CORE   ENERGY   A0R/A00=1.000    R3= 0     2     4  
   5( 1)    4.380                    0.000 0.866-0.500

  R CORE   ENERGY   A0R/A00=1.000    R3= 0     2     4     6  
   6( 1)    3.650                   -0.672 0.695-0.254 0.031

  R CORE   ENERGY   A0R/A00=1.000    R3= 0     2     4     6  
   7( 1)    7.057                    0.000 0.747-0.637 0.187
 

             ENERGY     K= 1/2
 
 I=  1/2- (1)  3.339  35: 1.000
 
 I=  1/2- (2)  3.801  33: 1.000
 
 I=  1/2- (3)  4.461  27: 1.000
 
 I=  1/2- (4)  4.859  30: 1.000
 
 I=  1/2- (5)  5.197  31: 1.000

             ENERGY     K= 1/2  -3/2
 
 I=  3/2- (1)  3.298  35: 0.697 0.717
 
 I=  3/2- (2)  3.521  35: 0.717-0.697

             ENERGY     K= 5/2   1/2  -3/2
 
 I=  5/2- (1)  3.598  35:-0.042-0.556 0.830
 
 I=  5/2- (2)  4.574  33: 0.465-0.849 0.250
 
 I=  5/2- (3)  5.000  35: 0.686-0.620-0.381
 
 I=  5/2- (4)  5.188  27:-0.394 0.916-0.081
 
 I=  5/2- (5)  5.346  33: 0.821 0.519 0.238

             ENERGY     K= 5/2   1/2  -3/2  -7/2
 
 I=  7/2- (1)  4.646  35: 0.371-0.813 0.447-0.032
 
 I=  7/2- (2)  5.042  35: 0.089-0.392-0.747 0.530
 
 I=  7/2- (3)  5.651  33:-0.428 0.743-0.502 0.111
 
 I=  7/2- (4)  5.724  35:-0.361-0.354-0.399-0.764
 
 I=  7/2- (5)  5.927  28:-0.012 0.283-0.681 0.675

             ENERGY     K= 9/2   5/2   1/2  -3/2  -7/2
 
 I=  9/2- (1)  4.872  35:-0.012-0.117 0.577-0.743 0.318
 
 I=  9/2- (2)  5.119  32:-0.015-0.262-0.762-0.585-0.096
 
 I=  9/2- (3)  5.817  33:-0.118 0.540-0.734 0.390-0.062
 
 I=  9/2- (4)  6.461  27:-0.112 0.572-0.757 0.295 0.014
 
 I=  9/2- (5)  6.821  28:-0.038 0.134-0.369 0.685-0.613

             ENERGY     K= 9/2   5/2   1/2  -3/2  -7/2 -11/2
 
 I= 11/2- (1)  4.042  29: 0.045 0.338 0.734 0.568 0.148 0.008
 
 I= 11/2- (2)  6.288  35:-0.112 0.441-0.701 0.522-0.170 0.016
 
 I= 11/2- (3)  6.513  32:-0.095-0.560-0.327 0.672 0.344 0.015
 
 I= 11/2- (4)  7.280  35: 0.010-0.330 0.332 0.489-0.713 0.183
 
 I= 11/2- (5)  7.333  33: 0.133-0.450 0.675-0.529 0.208-0.028

             ENERGY     K=13/2   9/2   5/2   1/2  -3/2  -7/2 -11/2
 
 I= 13/2- (1)  5.781  29: 0.010 0.196 0.616 0.244-0.586-0.419-0.060
 
 I= 13/2- (2)  5.931  32:-0.002-0.002 0.245 0.774 0.579 0.068-0.008
 
 I= 13/2- (3)  6.638  35: 0.003 0.021-0.215 0.565-0.680 0.402-0.101
 
 I= 13/2- (4)  7.544  33: 0.030-0.219 0.544-0.668 0.435-0.140 0.016
 
 I= 13/2- (5)  8.225  27: 0.029-0.231 0.585-0.681 0.368-0.063-0.010

             ENERGY     K=13/2   9/2   5/2   1/2  -3/2  -7/2 -11/2
  32 LEVELS    TIME=  0.0 SEC



 ******************* EXCITATION ENERGIES, DOMINANT CONFIGURATION AND EXPECTATION VALUES (WITH S.P. UU+VV FACTORS) *******************

  NR  Eex(keV)  I   Kdom  NY    <Jz>  <Jx**2> <Jy**2> <Jz**2> <I.j>/|I|  <Rx**2> <Ry**2> <Rz**2> <R.j>/|R|  <HROTx> <HROTy> <HROTz>

   1    0.0   3/2-   3/2  35   -0.46    1.37    8.67    2.31    0.58       1.90    8.87    3.10   -3.02      0.463   0.539   0.755
   2   41.1   1/2-   1/2  35   -0.46    1.37    8.67    2.31   -0.47       2.21    8.69    3.01   -3.42      0.537   0.529   0.733
   3  223.5   3/2-   1/2  35   -0.46    1.37    8.67    2.31   -0.16       2.18   11.44    3.10   -3.10      0.531   0.696   0.754
   4  299.9   5/2-   3/2  35   -0.46    1.37    8.67    2.31    0.45       1.98   13.33    3.15   -2.57      0.481   0.811   0.766
   5  503.6   1/2-   1/2  33    0.45    1.90    1.91    8.92    0.70       1.79    1.76    8.71   -3.46      0.436   0.107   2.121
  
   6  744.3  11/2-   1/2  29    0.03   48.02    7.44    1.57    6.23       3.39   11.40    3.46   -4.63      0.825   0.693   0.841
   7 1163.8   1/2-   1/2  27    0.48    2.91   12.09    1.84    0.81       2.45   12.12    1.61   -4.01      0.597   0.737   0.392
   8 1276.1   5/2-   1/2  33    0.45    1.90    1.91    8.92    0.48       2.76    6.02    9.86   -2.62      0.671   0.366   2.399
   9 1348.3   7/2-   1/2  35   -0.46    1.37    8.67    2.31   -0.17       3.07   22.26    4.14   -2.40      0.746   1.354   1.006
  10 1561.6   1/2-   1/2  30    0.56    3.73    5.07    8.69   -0.03       3.86    6.04    8.38   -4.09      0.939   0.367   2.039
  
  11 1574.5   9/2-   3/2  35   -0.46    1.37    8.67    2.31    0.37       3.06   26.28    4.07   -1.82      0.744   1.599   0.990
  12 1702.3   5/2-   5/2  35   -0.46    1.37    8.67    2.31   -0.36       4.49   12.02    6.72   -2.78      1.094   0.731   1.635
  13 1743.9   7/2-   3/2  35   -0.46    1.37    8.67    2.31    0.46       5.52   13.39    5.52   -2.13      1.344   0.814   1.343
  14 1821.4   9/2-   1/2  32   -0.57   28.65   22.71    3.50    4.32       5.93   25.83    4.87   -5.51      1.443   1.571   1.185
  15 1890.3   5/2-   1/2  27    0.48    2.91   12.09    1.84    0.51       3.65   16.64    2.27   -3.23      0.888   1.012   0.553
  
  16 1898.8   1/2-   1/2  31    1.13    2.83    3.24   12.27    0.67       3.13    3.41   11.39   -4.19      0.761   0.207   2.771
  17 2048.5   5/2-   5/2  33    0.45    1.90    1.91    8.92    0.48       5.09    1.81   11.75   -2.62      1.238   0.110   2.860
  18 2353.1   7/2-   1/2  33    0.45    1.90    1.91    8.92   -0.34       3.70   16.86   10.64   -2.52      0.899   1.026   2.588
  19 2426.2   7/2-   7/2  35   -0.46    1.37    8.67    2.31    0.55       6.06    8.76    8.95   -2.09      1.474   0.533   2.177
  20 2483.5  13/2-   5/2  29    0.03   48.02    7.44    1.57    5.25       3.84   20.91    7.77   -3.58      0.935   1.272   1.891
  
  21 2519.2   9/2-   1/2  33    0.45    1.90    1.91    8.92    0.45       3.83   18.37   10.80   -1.83      0.932   1.118   2.629
  22 2629.2   7/2-   3/2  28   -1.32    2.61    1.24    9.34    0.72       3.15   10.02   10.03   -2.14      0.767   0.609   2.439
  23 2633.0  13/2-   1/2  32   -0.57   28.65   22.71    3.50    4.34       8.35   29.93    4.76   -3.75      2.031   1.821   1.159
  24 2990.5  11/2-   1/2  35   -0.46    1.37    8.67    2.31   -0.20       4.05   41.34    5.13   -1.91      0.985   2.515   1.248
  25 3163.7   9/2-   1/2  27    0.48    2.91   12.09    1.84    0.41       4.41   29.63    3.50   -2.42      1.073   1.803   0.851
  
  26 3215.0  11/2-   3/2  32   -0.57   28.65   22.71    3.50    3.51       6.52   34.22    7.91   -4.86      1.587   2.081   1.924
  27 3340.0  13/2-   3/2  35   -0.46    1.37    8.67    2.31    0.34       4.05   47.30    5.07   -1.33      0.987   2.877   1.234
  28 3523.4   9/2-   3/2  28   -1.32    2.61    1.24    9.34    0.61       5.04   16.69   10.14   -1.80      1.227   1.016   2.467
  29 3982.5  11/2-   7/2  35   -0.46    1.37    8.67    2.31    0.41       8.09   26.08    8.98   -1.50      1.970   1.587   2.184
  30 4035.6  11/2-   1/2  33    0.45    1.90    1.91    8.92   -0.37       4.70   36.56   11.62   -2.05      1.143   2.224   2.829
  
  31 4246.4  13/2-   1/2  33    0.45    1.90    1.91    8.92    0.44       4.84   38.74   11.81   -1.30      1.177   2.356   2.873
  32 4927.4  13/2-   1/2  27    0.48    2.91   12.09    1.84    0.36       5.40   50.66    4.50   -1.84      1.313   3.082   1.095
