1SPECTRUM OF (Z= 82 A=207) IN PARTICLE-ROTOR  MODEL WITH MODIFIED OSCILLATOR POTENTIAL


 PARITY=-   EPS= 0.155   GAMMA= 15.0   EPS4=0.000   EPS6=0.000   LEVELS:  25  26  27  28  29  30  31  32  33  34  35  36  37  38  39

 PAIRING FACTORS: GN0= 19.20  GN1=  7.40  IPAIR= 15 ***  E2PLUS(INPUT)=   0.730  E2PLUR(INPUT)=   0.000

 CORIOLIS ATTENUATION PARAMETERS:  CHSI=1.000  ETA=  1.00

 MOMENT OF INERTIA PARAMETERS:   A1=  0.159 MEV   A2=  0.085 MEV   A3=  1.18876 MEV


 DELTA=0.776 MEV  LAMBDA=53.3692 MEV   HW0= 7.4313 MEV   LAMBDA/HW0= 7.1817

 E2ENERGY=0.730 MEV  HBAR**2/B= 3879./A**(7/3)= 655.8/A**2 MEV

 IREC=0  =>  RECOIL TERMS j+j-, j+j+, jzjz, ETC TREATED AS ONE-BODY OPERATORS WITH UU+VV PAIRING FACTORS



 S. P. LEVEL   EQP       U     V        (UU + VV)**1.00

     25       4.377    0.089 0.996      1.000 1.000 1.000 0.999 0.998 0.997 0.988 0.929 0.815 0.399 0.301 0.253 0.230 0.208 0.188
     26       3.912    0.100 0.995      1.000 1.000 1.000 1.000 0.999 0.998 0.990 0.933 0.821 0.408 0.311 0.264 0.241 0.219 0.198
     27       3.517    0.111 0.994      1.000 1.000 1.000 1.000 0.999 0.998 0.992 0.937 0.827 0.419 0.322 0.275 0.252 0.230 0.209
     28       3.219    0.121 0.993      0.999 1.000 1.000 1.000 1.000 0.999 0.993 0.941 0.833 0.428 0.332 0.285 0.262 0.240 0.220
     29       2.684    0.146 0.989      0.998 0.999 0.999 1.000 1.000 1.000 0.995 0.949 0.847 0.451 0.355 0.308 0.286 0.264 0.244
     30       2.373    0.166 0.986      0.997 0.998 0.998 0.999 1.000 1.000 0.997 0.955 0.857 0.468 0.374 0.327 0.305 0.283 0.263
     31       1.670    0.239 0.971      0.988 0.990 0.992 0.993 0.995 0.997 1.000 0.975 0.893 0.533 0.442 0.397 0.375 0.355 0.335
     32       0.964    0.451 0.893      0.929 0.933 0.937 0.941 0.949 0.955 0.975 1.000 0.971 0.709 0.632 0.593 0.573 0.555 0.537
     33       0.785    0.650 0.760      0.815 0.821 0.827 0.833 0.847 0.857 0.893 0.971 1.000 0.857 0.798 0.767 0.752 0.737 0.723
     34       1.296    0.949 0.315      0.399 0.408 0.419 0.428 0.451 0.468 0.533 0.709 0.857 1.000 0.995 0.988 0.984 0.980 0.976
     35       1.849    0.977 0.215      0.301 0.311 0.322 0.332 0.355 0.374 0.442 0.632 0.798 0.995 1.000 0.999 0.997 0.995 0.993
     36       2.368    0.986 0.166      0.253 0.264 0.275 0.285 0.308 0.327 0.397 0.593 0.767 0.988 0.999 1.000 1.000 0.999 0.998
     37       2.745    0.990 0.143      0.230 0.241 0.252 0.262 0.286 0.305 0.375 0.573 0.752 0.984 0.997 1.000 1.000 1.000 0.999
     38       3.243    0.993 0.120      0.208 0.219 0.230 0.240 0.264 0.283 0.355 0.555 0.737 0.980 0.995 0.999 1.000 1.000 1.000
     39       3.912    0.995 0.100      0.188 0.198 0.209 0.220 0.244 0.263 0.335 0.537 0.723 0.976 0.993 0.998 0.999 1.000 1.000

  R CORE   ENERGY   A0R/A00=1.000    R3= 0     2  
   2( 1)    0.730                    1.000-0.030
   2( 2)    5.003                    0.030 1.000

  R CORE   ENERGY   A0R/A00=1.000    R3= 0     2  
   3( 1)    5.733                    0.000 1.000

  R CORE   ENERGY   A0R/A00=1.000    R3= 0     2     4  
   4( 1)    2.389                    0.993-0.114 0.001

  R CORE   ENERGY   A0R/A00=1.000    R3= 0     2     4  
   5( 1)    7.923                    0.000 1.000-0.030

  R CORE   ENERGY   A0R/A00=1.000    R3= 0     2     4     6  
   6( 1)    4.882                    0.973-0.232 0.008-0.000

  R CORE   ENERGY   A0R/A00=1.000    R3= 0     2     4     6  
   7( 1)   11.057                    0.000 0.998-0.067 0.001
 

             ENERGY     K= 1/2
 
 I=  1/2- (1)  1.899  27:-0.088
                      32:-0.417
                      33: 0.184
                      34:-0.885
 
 I=  1/2- (2)  3.047  25:-0.101
                      30:-0.707
                      31: 0.697
 
 I=  1/2- (3)  4.696  27:-0.968
                      32:-0.165
                      34: 0.180
 
 I=  1/2- (4)  5.781  27: 0.228
                      28:-0.086
                      29:-0.089
                      32:-0.810
                      33: 0.305
                      34: 0.428
 
 I=  1/2- (5)  6.189  28: 0.095
                      29:-0.066
                      30:-0.162
                      31:-0.107
                      32: 0.347
                      33: 0.908

             ENERGY     K= 1/2  -3/2
 
 I=  3/2- (1)  1.691  27: 0.072 0.002
                      28:-0.002-0.096
                      30: 0.184 0.087
                      31:-0.169 0.124
                      32:-0.032-0.770
                      33: 0.015-0.475
                      34:-0.087 0.266
 
 I=  3/2- (2)  2.534  30: 0.149 0.129
                      31:-0.105 0.171
                      32:-0.406 0.154
                      33: 0.185 0.084
                      34:-0.829-0.029

             ENERGY     K= 5/2   1/2  -3/2
 
 I=  5/2- (1)  1.592  27: 0.000 0.070-0.002
                      29:-0.081-0.001-0.002
                      30: 0.002-0.118-0.145
                      31: 0.002 0.107-0.201
                      32:-0.367-0.027-0.281
                      33: 0.741 0.012-0.172
                      34: 0.303-0.076 0.095
 
 I=  5/2- (2)  2.257  28:-0.002-0.001 0.090
                      30: 0.015 0.237-0.101
                      31:-0.012-0.195-0.127
                      32:-0.147 0.008 0.706
                      33: 0.294-0.025 0.433
                      34: 0.118 0.025-0.235
 
 I=  5/2- (3)  2.539  30:-0.000-0.126-0.171
                      31:-0.001 0.106-0.217
                      32: 0.072-0.404 0.085
                      33:-0.133 0.173 0.050
                      34:-0.038-0.815-0.023
 
 I=  5/2- (4)  3.195  26: 0.000-0.001-0.064
                      27:-0.002-0.384 0.007
                      30: 0.000 0.312 0.375
                      31: 0.000-0.304 0.574
                      32:-0.084-0.125-0.083
                      33: 0.186 0.055-0.061
                      34: 0.103-0.319 0.046
 
 I=  5/2- (5)  4.440  25:-0.036 0.077-0.006
                      26: 0.000-0.012 0.055
                      27: 0.008-0.064-0.021
                      30:-0.033 0.555-0.292
                      31: 0.029-0.520-0.434
                      32: 0.047 0.030-0.247
                      33:-0.104 0.109-0.162
                      34:-0.057 0.015 0.112

             ENERGY     K= 5/2   1/2  -3/2  -7/2
 
 I=  7/2- (1)  2.198  29: 0.079-0.002-0.002-0.000
                      30: 0.004 0.141-0.177-0.010
                      31:-0.007-0.113-0.222-0.014
                      32: 0.351 0.007-0.348-0.004
                      33:-0.703 0.018-0.211-0.002
                      34:-0.280 0.008 0.114 0.001
 
 I=  7/2- (2)  2.811  25: 0.059 0.039 0.004 0.000
                      27:-0.001 0.214 0.003-0.001
                      28:-0.002-0.004-0.072-0.051
                      30: 0.001 0.305 0.180-0.002
                      31:-0.000-0.288 0.263-0.002
                      32:-0.140-0.059-0.580 0.037
                      33: 0.285 0.031-0.360 0.022
                      34: 0.118-0.182 0.202-0.012
 
 I=  7/2- (3)  3.917  25: 0.248-0.014-0.003 0.002
                      26: 0.007 0.003 0.023-0.135
                      27:-0.010-0.057-0.015-0.005
                      28:-0.000 0.006 0.007-0.888
                      30:-0.053-0.054-0.079-0.027
                      31: 0.037 0.039-0.105-0.025
                      32:-0.023 0.099-0.046 0.195
                      33: 0.042-0.050-0.021 0.109
                      34: 0.011 0.177-0.001-0.049
 
 I=  7/2- (4)  4.081  27:-0.002-0.100-0.002 0.002
                      28:-0.002 0.023-0.041 0.249
                      30: 0.045-0.089-0.193 0.023
                      31:-0.033 0.044-0.248 0.027
                      32:-0.123 0.371-0.302-0.042
                      33: 0.227-0.185-0.153-0.023
                      34: 0.064 0.669 0.028 0.010
 
 I=  7/2- (5)  4.424  25: 0.006-0.057 0.009-0.001
                      26:-0.000 0.011-0.080 0.025
                      27: 0.010 0.088-0.010-0.000
                      30: 0.005-0.352 0.417-0.025
                      31:-0.006 0.309 0.618-0.035
                      32: 0.099 0.158-0.110 0.003
                      33:-0.231 0.042-0.066 0.002
                      34:-0.141 0.275 0.027-0.001

             ENERGY     K= 9/2   5/2   1/2  -3/2  -7/2
 
 I=  9/2- (1)  2.749  26: 0.000-0.001 0.003 0.040 0.069
                      27:-0.000-0.002 0.205-0.005 0.001
                      29:-0.084-0.060-0.002-0.002 0.000
                      30:-0.001 0.002-0.251-0.239 0.003
                      31:-0.000 0.002 0.230-0.341 0.002
                      32: 0.020-0.276-0.054-0.346 0.010
                      33:-0.039 0.555 0.025-0.211 0.006
                      34:-0.015 0.226-0.169 0.116-0.003
 
 I=  9/2- (2)  3.379  25: 0.004 0.097-0.012-0.001 0.004
                      26: 0.000 0.002 0.000 0.016-0.259
                      28: 0.002-0.000-0.001-0.010 0.220
                      29: 0.908-0.020-0.001-0.000-0.001
                      32:-0.081-0.019-0.021-0.033-0.037
                      33: 0.142 0.041 0.009-0.020-0.020
 
 I=  9/2- (3)  3.971  25: 0.001-0.099-0.041 0.007 0.001
                      28:-0.000 0.004 0.000-0.065-0.129
                      29: 0.008 0.053-0.008-0.005 0.001
                      30: 0.001 0.008-0.320 0.132 0.005
                      31:-0.001-0.006 0.228 0.135 0.009
                      32:-0.011 0.240-0.064-0.533 0.078
                      33: 0.023-0.472 0.088-0.326 0.046
                      34: 0.009-0.173-0.127 0.172-0.024
 
 I=  9/2- (4)  4.096  27: 0.000-0.006-0.115 0.005-0.001
                      29: 0.052-0.028 0.025-0.005 0.000
                      30: 0.001-0.014 0.093 0.206-0.027
                      31:-0.000 0.013-0.076 0.240-0.034
                      32:-0.000-0.133 0.392-0.336 0.019
                      33:-0.001 0.226-0.147-0.189 0.011
                      34:-0.001 0.037 0.678 0.072-0.006
 
 I=  9/2- (5)  4.753  27: 0.000 0.029-0.464 0.027-0.000
                      30: 0.000-0.022 0.233 0.244-0.035
                      31:-0.000 0.020-0.245 0.396-0.048
                      32: 0.003-0.100-0.173-0.179 0.003
                      33:-0.007 0.247 0.084-0.132 0.002
                      34:-0.005 0.172-0.494 0.112-0.002

             ENERGY     K= 9/2   5/2   1/2  -3/2  -7/2 -11/2
 
 I= 11/2- (1)  3.217  35:-0.007-0.132-0.546-0.325-0.036-0.001
                      36: 0.011 0.170 0.255-0.434-0.074-0.002
                      37:-0.030-0.358 0.236-0.089-0.028-0.001
                      38: 0.001 0.008-0.029 0.121-0.248-0.009
                      39: 0.123-0.057 0.009-0.001 0.000 0.000
 
 I= 11/2- (2)  3.935  25:-0.003-0.087-0.024 0.011 0.003 0.000
                      26:-0.000-0.002 0.009-0.030-0.165-0.003
                      28:-0.000-0.004-0.004 0.043 0.099 0.003
                      29:-0.277-0.058 0.005 0.002-0.000-0.000
                      30:-0.001 0.006-0.200 0.221-0.016-0.001
                      31:-0.001 0.000 0.135 0.239-0.012-0.001
                      32: 0.050-0.295-0.016 0.379-0.034-0.000
                      33:-0.095 0.586-0.054 0.227-0.020-0.000
                      34:-0.035 0.223-0.008-0.116 0.010 0.000
 
 I= 11/2- (3)  4.326  25: 0.012 0.135-0.025 0.006-0.004-0.000
                      26: 0.000 0.003 0.004-0.035 0.299 0.025
                      28: 0.002-0.002-0.002 0.032-0.280-0.008
                      29: 0.811-0.055 0.003 0.001 0.001 0.000
                      30: 0.004-0.033-0.086 0.093 0.058 0.003
                      31: 0.001 0.024 0.055 0.093 0.057 0.003
                      32:-0.061-0.109-0.006 0.142 0.040 0.001
                      33: 0.103 0.217-0.020 0.085 0.021 0.000
                      34: 0.030 0.081-0.003-0.042-0.008-0.000
 
 I= 11/2- (4)  4.641  25:-0.006 0.083 0.032 0.004 0.000-0.000
                      27:-0.000-0.020 0.315-0.021-0.002 0.000
                      28: 0.000-0.002-0.002-0.051-0.090 0.008
                      30:-0.000-0.037 0.330 0.215-0.020 0.000
                      31:-0.000 0.032-0.338 0.339-0.025 0.000
                      32: 0.015-0.139-0.050-0.450 0.081-0.002
                      33:-0.031 0.286 0.033-0.285 0.049-0.001
                      34:-0.012 0.127-0.212 0.171-0.026 0.001
 
 I= 11/2- (5)  5.924  25: 0.005 0.362-0.039-0.002 0.003-0.000
                      26: 0.000 0.010 0.002 0.042-0.185 0.001
                      27:-0.001-0.011-0.092-0.026-0.006 0.000
                      28:-0.001-0.000 0.005 0.040-0.796 0.075
                      29:-0.274 0.023 0.008-0.000 0.004-0.000
                      30:-0.004-0.076-0.078-0.079-0.026 0.000
                      31: 0.002 0.052 0.064-0.108-0.021 0.000
                      32: 0.021-0.026 0.085-0.021 0.167-0.012
                      33:-0.036 0.041-0.045-0.002 0.092-0.007
                      34:-0.010 0.004 0.129-0.014-0.040 0.003

             ENERGY     K=13/2   9/2   5/2   1/2  -3/2  -7/2 -11/2
 
 I= 13/2- (1)  4.592  25:-0.000-0.001 0.072 0.033 0.004 0.001-0.000
                      26:-0.000-0.000 0.002-0.002-0.033-0.108 0.005
                      27:-0.000 0.001 0.027-0.294 0.024-0.002 0.000
                      28:-0.000-0.000 0.003 0.002 0.033 0.065-0.002
                      29:-0.013 0.137 0.039 0.001 0.001-0.000 0.000
                      30:-0.000 0.001-0.027 0.296 0.252-0.035 0.000
                      31:-0.000 0.000 0.019-0.291 0.392-0.042 0.000
                      32: 0.002-0.042 0.212 0.045 0.320-0.041 0.001
                      33:-0.003 0.082-0.432-0.025 0.197-0.024 0.000
                      34:-0.001 0.032-0.186 0.196-0.114 0.013-0.000
 
 I= 13/2- (2)  4.667  35:-0.000-0.023-0.192-0.145 0.265 0.080 0.004
                      36: 0.000 0.036 0.243 0.103 0.371 0.163 0.010
                      37:-0.001-0.096-0.505 0.035 0.080 0.059 0.004
                      38: 0.000 0.003 0.010-0.012-0.058 0.500 0.041
                      39: 0.002 0.311-0.041-0.002 0.001-0.000-0.000
 
 I= 13/2- (3)  5.410  25: 0.000-0.012-0.190 0.035 0.001-0.005-0.000
                      26: 0.000-0.000-0.005 0.001-0.046 0.365 0.011
                      27: 0.000-0.002-0.021-0.082-0.011 0.005 0.000
                      28: 0.000-0.002 0.000 0.003 0.030-0.333 0.006
                      29: 0.072-0.793 0.053 0.002-0.000 0.001-0.000
                      30: 0.000-0.003 0.033 0.087 0.072 0.055 0.002
                      31: 0.000-0.001-0.021-0.077 0.100 0.050 0.002
                      32:-0.005 0.063 0.020 0.044 0.042 0.048-0.001
                      33: 0.009-0.107-0.049-0.018 0.028 0.025-0.001
                      34: 0.003-0.031-0.028 0.080-0.020-0.010 0.000
 
 I= 13/2- (4)  6.463  25: 0.000 0.014-0.138-0.030 0.008 0.002-0.000
                      26: 0.000 0.000-0.004 0.018-0.013-0.085 0.010
                      27:-0.000 0.001-0.023 0.084 0.012-0.004 0.000
                      28: 0.000-0.000 0.005-0.005-0.024-0.209 0.034
                      29:-0.003 0.028 0.060-0.019-0.003 0.002-0.000
                      30:-0.000 0.000 0.058-0.342 0.130 0.010-0.000
                      31: 0.000 0.000-0.042 0.202 0.099 0.017-0.001
                      32: 0.001-0.039 0.299-0.155-0.317 0.120-0.008
                      33:-0.002 0.077-0.561 0.166-0.207 0.071-0.005
                      34:-0.001 0.030-0.168-0.230 0.123-0.035 0.002
 
 I= 13/2- (5)  6.533  25: 0.000 0.011-0.091 0.006 0.012-0.002 0.000
                      27:-0.000 0.002 0.005-0.130 0.020-0.003 0.000
                      28:-0.000 0.000-0.004 0.032-0.061-0.077 0.019
                      29:-0.011 0.122-0.033 0.024-0.008 0.001-0.000
                      30:-0.000 0.001-0.015-0.015 0.229-0.060 0.001
                      31: 0.000-0.001 0.016-0.009 0.229-0.069 0.002
                      32: 0.001-0.001-0.119 0.389-0.509 0.082-0.005
                      33:-0.001 0.002 0.162-0.095-0.274 0.049-0.003
                      34:-0.000 0.001-0.028 0.528 0.081-0.024 0.001

             ENERGY     K=13/2   9/2   5/2   1/2  -3/2  -7/2 -11/2
  32 LEVELS    TIME=  0.0 SEC



 ******************* EXCITATION ENERGIES, DOMINANT CONFIGURATION AND EXPECTATION VALUES (WITH S.P. UU+VV FACTORS) *******************

  NR  Eex(keV)  I   Kdom  NY    <Jz>  <Jx**2> <Jy**2> <Jz**2> <I.j>/|I|  <Rx**2> <Ry**2> <Rz**2> <R.j>/|R|  <HROTx> <HROTy> <HROTz>

   1    0.0   5/2-   5/2  33    1.65    1.86    1.93    5.16    2.50       1.20    1.51    0.22   -0.92      0.192   0.129   0.260
   2   99.8   3/2-   3/2  32   -1.26    1.39    1.50    2.08    1.48       1.24    1.50    0.24   -1.22      0.198   0.128   0.287
   3  306.8   1/2-   1/2  34    0.49    0.80    1.38    0.63    0.84       0.56    1.16    0.40   -1.43      0.089   0.099   0.470
   4  606.5   7/2-   5/2  33    1.33    2.03    1.95    4.88    2.12       3.46    4.10    0.21   -0.16      0.552   0.350   0.256
   5  665.2   5/2-   3/2  32   -0.74    1.55    1.58    2.52    1.15       3.39    3.96    0.23   -0.81      0.540   0.338   0.274
  
   6  942.5   3/2-   1/2  34    0.34    1.12    1.59    0.76   -0.02       3.02    3.91    0.37   -1.30      0.481   0.334   0.443
   7  946.8   5/2-   1/2  34    0.36    1.46    1.72    0.91    0.93       3.01    3.94    0.36   -0.49      0.479   0.337   0.431
   8 1157.5   9/2-   5/2  33    0.66    2.69    3.06    3.77    2.44       4.18    5.68    0.19    0.82      0.666   0.485   0.221
   9 1219.0   7/2-   3/2  32   -0.47    1.43    1.93    2.25    1.42       4.23    5.68    0.21    0.00      0.673   0.485   0.254
  10 1455.2   1/2-   1/2  30    0.49    3.19    4.49    0.30    0.47       3.34    4.51    0.07   -2.69      0.532   0.385   0.080
  
  11 1603.5   5/2-   3/2  31   -0.37    2.47    3.98    1.62    1.37       3.79    4.78    0.13   -1.36      0.603   0.408   0.160
  12 1625.7  11/2-   1/2  35    0.01   31.86   25.60    3.11    7.47       3.53    3.48    0.04   -6.01      0.562   0.297   0.042
  13 1787.4   9/2-   9/2  29    3.43    2.53    3.01   18.72    4.44       2.25    2.58    0.05   -0.99      0.359   0.220   0.063
  14 2325.5   7/2-   7/2  28   -2.83    2.12    2.73   11.01    3.21       2.68    3.34    0.13   -1.26      0.427   0.285   0.152
  15 2343.6  11/2-   5/2  33    1.02    2.49    2.45    5.92    2.22       8.17   11.68    0.23    0.54      1.301   0.996   0.270
  
  16 2378.9   9/2-   3/2  32    0.14    1.94    1.75    3.37    1.08       8.59   12.21    0.26   -0.37      1.369   1.042   0.304
  17 2489.4   7/2-   1/2  34   -0.04    1.83    1.93    2.17    0.24       8.00   11.39    0.37   -1.12      1.274   0.972   0.444
  18 2504.2   9/2-   1/2  34    0.13    1.68    1.58    1.50    0.88       8.42   11.95    0.39   -0.09      1.342   1.020   0.458
  19 2734.2  11/2-   9/2  29    2.56    2.81    3.12   16.37    3.73       6.12    7.25    0.07    0.00      0.975   0.618   0.085
  20 2832.7   7/2-   3/2  31   -0.50    2.53    3.36    1.98    0.34       9.06   11.67    0.16   -1.42      1.443   0.996   0.186
  
  21 2848.7   5/2-   1/2  30   -0.21    3.24    4.42    1.18   -0.48       8.91   11.38    0.13   -2.27      1.419   0.971   0.160
  22 3000.1  13/2-   5/2  33    0.31    2.95    4.10    3.35    2.55       9.03   14.33    0.22    1.52      1.438   1.223   0.263
  23 3049.4  11/2-   3/2  32   -0.24    1.52    2.49    2.21    1.53       9.09   14.34    0.26    0.60      1.447   1.224   0.304
  24 3075.7  13/2-   5/2  37    0.04   31.84   21.38    8.46    6.82       6.33    8.78    0.11   -3.61      1.008   0.749   0.133
  25 3104.6   1/2-   1/2  27    0.50    2.51    6.17    0.60    0.63       2.39    6.19    0.35   -2.92      0.381   0.529   0.416
  
  26 3161.5   9/2-   1/2  34    0.12    1.61    3.23    1.56    0.94       8.85   12.65    0.28   -0.37      1.410   1.080   0.339
  27 3818.4  13/2-   9/2  29    2.13    3.16    3.68   16.56    3.70       9.07   11.40    0.08    0.53      1.445   0.973   0.096
  28 4189.3   1/2-   1/2  32    0.80    2.40    1.01    4.09    1.04       2.14    0.77    3.54   -2.60      0.341   0.066   4.203
