1SPECTRUM OF (Z= 82 A=207) IN PARTICLE-ROTOR  MODEL WITH MODIFIED OSCILLATOR POTENTIAL


 PARITY=-   EPS= 0.446   GAMMA= 30.0   EPS4=0.000   EPS6=0.000   LEVELS:  24  25  26  27  28  29  30  31  32  33  34  35  36  37  38

 PAIRING FACTORS: GN0= 19.20  GN1=  7.40  IPAIR= 15 ***  E2PLUS(INPUT)=   0.730  E2PLUR(INPUT)=   0.000

 CORIOLIS ATTENUATION PARAMETERS:  CHSI=0.000  ETA=  0.00

     FOR ETA .NE. 1, THE ANGULAR MOMENTUM EXPECTATION VALUES OF THE ENERGY EIGENSTATES ARE CALCULATED ONLY APPROXIMATELY

 MOMENT OF INERTIA PARAMETERS:   A1=  0.243 MEV   A2=  0.061 MEV   A3=  0.24333 MEV


 DELTA=0.886 MEV  LAMBDA=53.2899 MEV   HW0= 7.5823 MEV   LAMBDA/HW0= 7.0282

 E2ENERGY=0.730 MEV  HBAR**2/B=24538./A**(7/3)=4148.0/A**2 MEV

 IREC=0  =>  RECOIL TERMS j+j-, j+j+, jzjz, ETC TREATED AS ONE-BODY OPERATORS WITH UU+VV PAIRING FACTORS



 S. P. LEVEL   EQP       U     V        (UU + VV)**0.00

     24       4.591    0.097 0.995      1.000 1.000 1.000 1.000 1.000 1.000 1.000 1.000 1.000 1.000 1.000 1.000 1.000 1.000 1.000
     25       4.043    0.110 0.994      1.000 1.000 1.000 1.000 1.000 1.000 1.000 1.000 1.000 1.000 1.000 1.000 1.000 1.000 1.000
     26       3.366    0.133 0.991      1.000 1.000 1.000 1.000 1.000 1.000 1.000 1.000 1.000 1.000 1.000 1.000 1.000 1.000 1.000
     27       2.603    0.173 0.985      1.000 1.000 1.000 1.000 1.000 1.000 1.000 1.000 1.000 1.000 1.000 1.000 1.000 1.000 1.000
     28       1.963    0.232 0.973      1.000 1.000 1.000 1.000 1.000 1.000 1.000 1.000 1.000 1.000 1.000 1.000 1.000 1.000 1.000
     29       1.464    0.319 0.948      1.000 1.000 1.000 1.000 1.000 1.000 1.000 1.000 1.000 1.000 1.000 1.000 1.000 1.000 1.000
     30       1.369    0.345 0.939      1.000 1.000 1.000 1.000 1.000 1.000 1.000 1.000 1.000 1.000 1.000 1.000 1.000 1.000 1.000
     31       0.951    0.564 0.826      1.000 1.000 1.000 1.000 1.000 1.000 1.000 1.000 1.000 1.000 1.000 1.000 1.000 1.000 1.000
     32       0.887    0.721 0.693      1.000 1.000 1.000 1.000 1.000 1.000 1.000 1.000 1.000 1.000 1.000 1.000 1.000 1.000 1.000
     33       0.907    0.778 0.628      1.000 1.000 1.000 1.000 1.000 1.000 1.000 1.000 1.000 1.000 1.000 1.000 1.000 1.000 1.000
     34       1.579    0.956 0.294      1.000 1.000 1.000 1.000 1.000 1.000 1.000 1.000 1.000 1.000 1.000 1.000 1.000 1.000 1.000
     35       2.286    0.980 0.198      1.000 1.000 1.000 1.000 1.000 1.000 1.000 1.000 1.000 1.000 1.000 1.000 1.000 1.000 1.000
     36       2.628    0.985 0.171      1.000 1.000 1.000 1.000 1.000 1.000 1.000 1.000 1.000 1.000 1.000 1.000 1.000 1.000 1.000
     37       3.155    0.990 0.142      1.000 1.000 1.000 1.000 1.000 1.000 1.000 1.000 1.000 1.000 1.000 1.000 1.000 1.000 1.000
     38       3.239    0.990 0.138      1.000 1.000 1.000 1.000 1.000 1.000 1.000 1.000 1.000 1.000 1.000 1.000 1.000 1.000 1.000

  R CORE   ENERGY   A0R/A00=1.000    R3= 0     2  
   2( 1)    0.730                    0.866-0.500
   2( 2)    1.460                    0.500 0.866

  R CORE   ENERGY   A0R/A00=1.000    R3= 0     2  
   3( 1)    2.190                    0.000 1.000

  R CORE   ENERGY   A0R/A00=1.000    R3= 0     2     4  
   4( 1)    1.947                    0.740-0.661 0.125

  R CORE   ENERGY   A0R/A00=1.000    R3= 0     2     4  
   5( 1)    4.380                    0.000 0.866-0.500

  R CORE   ENERGY   A0R/A00=1.000    R3= 0     2     4     6  
   6( 1)    3.650                   -0.672 0.695-0.254 0.031

  R CORE   ENERGY   A0R/A00=1.000    R3= 0     2     4     6  
   7( 1)    7.057                    0.000 0.747-0.637 0.187
 

             ENERGY     K= 1/2
 
 I=  1/2- (1)  3.848  28: 1.000
 
 I=  1/2- (2)  4.338  32: 1.000
 
 I=  1/2- (3)  4.379  30: 1.000
 
 I=  1/2- (4)  4.908  33: 1.000
 
 I=  1/2- (5)  5.138  38: 1.000

             ENERGY     K= 1/2  -3/2
 
 I=  3/2- (1)  4.476  28: 0.769-0.639
 
 I=  3/2- (2)  4.607  32: 0.815-0.580

             ENERGY     K= 5/2   1/2  -3/2
 
 I=  5/2- (1)  4.588  28:-0.331 0.944-0.015
 
 I=  5/2- (2)  5.157  30: 0.259-0.806 0.532
 
 I=  5/2- (3)  5.205  28: 0.758 0.275 0.591
 
 I=  5/2- (4)  5.360  32: 0.367-0.873 0.321
 
 I=  5/2- (5)  5.456  38:-0.056-0.562 0.825

             ENERGY     K= 5/2   1/2  -3/2  -7/2
 
 I=  7/2- (1)  5.518  28:-0.023-0.663 0.739-0.113
 
 I=  7/2- (2)  5.554  32: 0.289-0.724 0.610-0.141
 
 I=  7/2- (3)  5.878  30:-0.086 0.597-0.765 0.228
 
 I=  7/2- (4)  6.080  28: 0.926-0.253-0.224-0.170
 
 I=  7/2- (5)  6.327  33: 0.610-0.735 0.297-0.022

             ENERGY     K= 9/2   5/2   1/2  -3/2  -7/2
 
 I=  9/2- (1)  5.911  28:-0.101 0.566-0.771 0.272 0.036
 
 I=  9/2- (2)  6.412  30:-0.064 0.385-0.708 0.562-0.177
 
 I=  9/2- (3)  6.759  38:-0.016-0.108 0.581-0.745 0.308
 
 I=  9/2- (4)  6.849  32:-0.093 0.482-0.739 0.452-0.094
 
 I=  9/2- (5)  7.088  33:-0.144 0.552-0.700 0.415-0.109

             ENERGY     K= 9/2   5/2   1/2  -3/2  -7/2 -11/2
 
 I= 11/2- (1)  5.702  26: 0.040 0.331 0.742 0.566 0.138 0.006
 
 I= 11/2- (2)  6.987  32:-0.089 0.372-0.663 0.591-0.252 0.035
 
 I= 11/2- (3)  7.135  28: 0.006-0.222 0.644-0.676 0.279-0.032
 
 I= 11/2- (4)  7.203  24: 0.002-0.002 0.009-0.053 0.246-0.968
 
 I= 11/2- (5)  7.543  30: 0.017-0.209 0.587-0.692 0.359-0.058

             ENERGY     K=13/2   9/2   5/2   1/2  -3/2  -7/2 -11/2
 
 I= 13/2- (1)  7.416  26: 0.007 0.181 0.618 0.250-0.597-0.404-0.050
 
 I= 13/2- (2)  7.716  28: 0.027-0.225 0.588-0.689 0.355-0.042-0.017
 
 I= 13/2- (3)  8.154  30: 0.016-0.142 0.426-0.651 0.554-0.255 0.053
 
 I= 13/2- (4)  8.553  38: 0.004 0.016-0.211 0.568-0.682 0.397-0.097
 
 I= 13/2- (5)  8.763  24: 0.001 0.002 0.001-0.024 0.123-0.414 0.902

             ENERGY     K=13/2   9/2   5/2   1/2  -3/2  -7/2 -11/2
  32 LEVELS    TIME=  0.0 SEC



 ******************* EXCITATION ENERGIES, DOMINANT CONFIGURATION AND EXPECTATION VALUES (WITH S.P. UU+VV FACTORS) *******************

  NR  Eex(keV)  I   Kdom  NY    <Jz>  <Jx**2> <Jy**2> <Jz**2> <I.j>/|I|  <Rx**2> <Ry**2> <Rz**2> <R.j>/|R|  <HROTx> <HROTy> <HROTz>

   1    0.0   1/2-   1/2  28    0.38    2.90   13.24    2.13    0.69       2.39   13.44    2.00   -4.19      0.581   0.817   0.486
   2  490.7   1/2-   1/2  32    0.05    3.90    6.06    8.29   -0.21       3.96    6.92    8.49   -4.19      0.964   0.421   2.067
   3  531.5   1/2-   1/2  30   -0.27    2.83    0.91    8.87    0.22       2.78    0.82    9.39   -3.45      0.676   0.050   2.284
   4  628.2   3/2-   1/2  28    0.38    2.90   13.24    2.13    0.00       2.99   15.58    3.44   -3.89      0.728   0.948   0.837
   5  740.1   5/2-   1/2  28    0.38    2.90   13.24    2.13    0.45       3.78   18.06    2.49   -3.43      0.920   1.099   0.606
  
   6  759.5   3/2-   1/2  32    0.05    3.90    6.06    8.29    0.48       4.44    6.48    9.23   -3.86      1.080   0.394   2.246
   7 1060.7   1/2-   1/2  33    0.63    2.67    3.19   12.94    0.34       3.04    3.36   12.56   -4.25      0.740   0.204   3.057
   8 1290.3   1/2-   1/2  38   -0.37    1.38    9.45    2.55   -0.49       2.23    9.58    3.18   -3.57      0.543   0.583   0.773
   9 1309.4   5/2-   1/2  30   -0.27    2.83    0.91    8.87    0.29       4.08    5.45   10.13   -2.65      0.992   0.331   2.464
  10 1357.6   5/2-   5/2  28    0.38    2.90   13.24    2.13    0.54       4.02   14.00    5.80   -3.42      0.979   0.852   1.412
  
  11 1512.2   5/2-   1/2  32    0.05    3.90    6.06    8.29   -0.41       5.21   14.69    9.50   -3.59      1.267   0.894   2.312
  12 1608.8   5/2-   3/2  38   -0.37    1.38    9.45    2.55    0.37       1.94   14.48    3.55   -2.75      0.473   0.881   0.864
  13 1670.8   7/2-   3/2  28    0.38    2.90   13.24    2.13    0.11       4.31   24.72    4.12   -3.10      1.049   1.504   1.002
  14 1706.2   7/2-   1/2  32    0.05    3.90    6.06    8.29    0.54       5.63   14.04   10.04   -2.95      1.370   0.854   2.443
  15 1854.2  11/2-   1/2  26    0.08   42.70    8.09    1.25    5.77       3.49   12.20    3.06   -4.05      0.849   0.742   0.744
  
  16 2030.2   7/2-   3/2  30   -0.27    2.83    0.91    8.87   -0.11       4.45   14.31   10.50   -2.42      1.083   0.871   2.555
  17 2063.4   9/2-   1/2  28    0.38    2.90   13.24    2.13    0.30       4.40   31.74    3.89   -2.65      1.071   1.931   0.946
  18 2232.7   7/2-   5/2  28    0.38    2.90   13.24    2.13    0.35       5.70   19.11    6.45   -3.02      1.386   1.163   1.569
  19 2479.5   7/2-   1/2  33    0.63    2.67    3.19   12.94    0.14       4.29   14.86   14.27   -3.15      1.045   0.904   3.472
  20 2564.5   9/2-   1/2  30   -0.27    2.83    0.91    8.87    0.31       5.07   18.08   11.13   -1.89      1.235   1.100   2.708
  
  21 2911.5   9/2-   3/2  38   -0.37    1.38    9.45    2.55    0.28       3.10   27.83    4.41   -2.02      0.755   1.693   1.073
  22 3001.8   9/2-   1/2  32    0.05    3.90    6.06    8.29   -0.49       6.15   31.15   10.57   -2.99      1.496   1.895   2.572
  23 3139.7  11/2-   1/2  32    0.05    3.90    6.06    8.29    0.56       6.63   29.60   11.04   -2.17      1.613   1.801   2.687
  24 3240.1   9/2-   1/2  33    0.63    2.67    3.19   12.94    0.15       4.92   22.24   14.92   -2.78      1.198   1.353   3.630
  25 3287.7  11/2-   3/2  28    0.38    2.90   13.24    2.13    0.02       5.37   43.39    5.04   -2.48      1.308   2.640   1.225
  
  26 3355.6  11/2-  11/2  24   -4.55    3.30    2.24   23.94    4.09       4.67    7.54    4.18   -1.25      1.137   0.459   1.017
  27 3568.4  13/2-   5/2  26    0.08   42.70    8.09    1.25    4.84       3.93   22.07    7.20   -3.17      0.956   1.342   1.752
  28 3695.5  11/2-   3/2  30   -0.27    2.83    0.91    8.87   -0.18       5.46   33.55   11.52   -1.93      1.329   2.041   2.804
  29 3868.6  13/2-   1/2  28    0.38    2.90   13.24    2.13    0.24       5.38   53.39    4.91   -2.08      1.310   3.248   1.195
  30 4306.1  13/2-   1/2  30   -0.27    2.83    0.91    8.87    0.32       6.07   38.70   12.13   -1.38      1.478   2.355   2.952
  
  31 4705.6  13/2-   3/2  38   -0.37    1.38    9.45    2.55    0.24       4.10   49.29    5.42   -1.53      0.997   2.998   1.319
  32 4915.2  13/2-  11/2  24   -4.55    3.30    2.24   23.94    3.32       7.92   19.66    4.32   -1.12      1.926   1.196   1.050
