1SPECTRUM OF (Z= 82 A=207) IN PARTICLE-ROTOR  MODEL WITH MODIFIED OSCILLATOR POTENTIAL


 PARITY=-   EPS= 0.457   GAMMA= 30.0   EPS4=0.000   EPS6=0.000   LEVELS:  24  25  26  27  28  29  30  31  32  33  34  35  36  37  38

 PAIRING FACTORS: GN0= 19.20  GN1=  7.40  IPAIR= 15 ***  E2PLUS(INPUT)=   0.730  E2PLUR(INPUT)=   0.000

 CORIOLIS ATTENUATION PARAMETERS:  CHSI=0.000  ETA=  0.00

     FOR ETA .NE. 1, THE ANGULAR MOMENTUM EXPECTATION VALUES OF THE ENERGY EIGENSTATES ARE CALCULATED ONLY APPROXIMATELY

 MOMENT OF INERTIA PARAMETERS:   A1=  0.243 MEV   A2=  0.061 MEV   A3=  0.24333 MEV


 DELTA=0.875 MEV  LAMBDA=53.3136 MEV   HW0= 7.5913 MEV   LAMBDA/HW0= 7.0230

 E2ENERGY=0.730 MEV  HBAR**2/B=25763./A**(7/3)=4355.2/A**2 MEV

 IREC=0  =>  RECOIL TERMS j+j-, j+j+, jzjz, ETC TREATED AS ONE-BODY OPERATORS WITH UU+VV PAIRING FACTORS



 S. P. LEVEL   EQP       U     V        (UU + VV)**0.00

     24       4.498    0.098 0.995      1.000 1.000 1.000 1.000 1.000 1.000 1.000 1.000 1.000 1.000 1.000 1.000 1.000 1.000 1.000
     25       4.025    0.109 0.994      1.000 1.000 1.000 1.000 1.000 1.000 1.000 1.000 1.000 1.000 1.000 1.000 1.000 1.000 1.000
     26       3.573    0.123 0.992      1.000 1.000 1.000 1.000 1.000 1.000 1.000 1.000 1.000 1.000 1.000 1.000 1.000 1.000 1.000
     27       2.538    0.175 0.985      1.000 1.000 1.000 1.000 1.000 1.000 1.000 1.000 1.000 1.000 1.000 1.000 1.000 1.000 1.000
     28       1.897    0.238 0.971      1.000 1.000 1.000 1.000 1.000 1.000 1.000 1.000 1.000 1.000 1.000 1.000 1.000 1.000 1.000
     29       1.619    0.282 0.959      1.000 1.000 1.000 1.000 1.000 1.000 1.000 1.000 1.000 1.000 1.000 1.000 1.000 1.000 1.000
     30       1.314    0.356 0.934      1.000 1.000 1.000 1.000 1.000 1.000 1.000 1.000 1.000 1.000 1.000 1.000 1.000 1.000 1.000
     31       1.014    0.497 0.868      1.000 1.000 1.000 1.000 1.000 1.000 1.000 1.000 1.000 1.000 1.000 1.000 1.000 1.000 1.000
     32       0.888    0.764 0.645      1.000 1.000 1.000 1.000 1.000 1.000 1.000 1.000 1.000 1.000 1.000 1.000 1.000 1.000 1.000
     33       0.929    0.817 0.576      1.000 1.000 1.000 1.000 1.000 1.000 1.000 1.000 1.000 1.000 1.000 1.000 1.000 1.000 1.000
     34       1.475    0.950 0.312      1.000 1.000 1.000 1.000 1.000 1.000 1.000 1.000 1.000 1.000 1.000 1.000 1.000 1.000 1.000
     35       2.124    0.978 0.211      1.000 1.000 1.000 1.000 1.000 1.000 1.000 1.000 1.000 1.000 1.000 1.000 1.000 1.000 1.000
     36       2.778    0.987 0.160      1.000 1.000 1.000 1.000 1.000 1.000 1.000 1.000 1.000 1.000 1.000 1.000 1.000 1.000 1.000
     37       3.008    0.989 0.147      1.000 1.000 1.000 1.000 1.000 1.000 1.000 1.000 1.000 1.000 1.000 1.000 1.000 1.000 1.000
     38       3.311    0.991 0.133      1.000 1.000 1.000 1.000 1.000 1.000 1.000 1.000 1.000 1.000 1.000 1.000 1.000 1.000 1.000

  R CORE   ENERGY   A0R/A00=1.000    R3= 0     2  
   2( 1)    0.730                    0.866-0.500
   2( 2)    1.460                    0.500 0.866

  R CORE   ENERGY   A0R/A00=1.000    R3= 0     2  
   3( 1)    2.190                    0.000 1.000

  R CORE   ENERGY   A0R/A00=1.000    R3= 0     2     4  
   4( 1)    1.947                    0.740-0.661 0.125

  R CORE   ENERGY   A0R/A00=1.000    R3= 0     2     4  
   5( 1)    4.380                    0.000 0.866-0.500

  R CORE   ENERGY   A0R/A00=1.000    R3= 0     2     4     6  
   6( 1)    3.650                   -0.672 0.695-0.254 0.031

  R CORE   ENERGY   A0R/A00=1.000    R3= 0     2     4     6  
   7( 1)    7.057                    0.000 0.747-0.637 0.187
 

             ENERGY     K= 1/2
 
 I=  1/2- (1)  3.794  28: 1.000
 
 I=  1/2- (2)  4.317  30: 1.000
 
 I=  1/2- (3)  4.355  32: 1.000
 
 I=  1/2- (4)  4.945  33: 1.000
 
 I=  1/2- (5)  6.022  36: 1.000

             ENERGY     K= 1/2  -3/2
 
 I=  3/2- (1)  4.416  28: 0.766-0.643
 
 I=  3/2- (2)  4.622  32: 0.807-0.591

             ENERGY     K= 5/2   1/2  -3/2
 
 I=  5/2- (1)  4.536  28:-0.326 0.945-0.009
 
 I=  5/2- (2)  5.106  30: 0.270-0.823 0.500
 
 I=  5/2- (3)  5.153  28: 0.755 0.266 0.599
 
 I=  5/2- (4)  5.374  32: 0.358-0.872 0.332
 
 I=  5/2- (5)  5.749  30: 0.041 0.528 0.848

             ENERGY     K= 5/2   1/2  -3/2  -7/2
 
 I=  7/2- (1)  5.453  28:-0.022-0.663 0.740-0.114
 
 I=  7/2- (2)  5.571  32: 0.283-0.722 0.615-0.143
 
 I=  7/2- (3)  5.854  30:-0.102 0.616-0.751 0.214
 
 I=  7/2- (4)  6.034  28: 0.925-0.252-0.224-0.174
 
 I=  7/2- (5)  6.378  33: 0.594-0.742 0.309-0.025

             ENERGY     K= 9/2   5/2   1/2  -3/2  -7/2
 
 I=  9/2- (1)  5.864  28:-0.101 0.566-0.772 0.270 0.037
 
 I=  9/2- (2)  6.363  30:-0.067 0.397-0.714 0.548-0.164
 
 I=  9/2- (3)  6.861  32:-0.090 0.476-0.738 0.459-0.099
 
 I=  9/2- (4)  7.128  33:-0.134 0.537-0.704 0.429-0.115
 
 I=  9/2- (5)  7.620  28: 0.294-0.290-0.485-0.711 0.299

             ENERGY     K= 9/2   5/2   1/2  -3/2  -7/2 -11/2
 
 I= 11/2- (1)  5.916  26: 0.039 0.330 0.743 0.565 0.137 0.006
 
 I= 11/2- (2)  7.008  32: 0.087-0.368 0.662-0.594 0.254-0.036
 
 I= 11/2- (3)  7.067  28: 0.005-0.220 0.644-0.677 0.280-0.032
 
 I= 11/2- (4)  7.161  24: 0.003-0.003 0.010-0.055 0.251-0.966
 
 I= 11/2- (5)  7.520  30: 0.024-0.227 0.600-0.683 0.345-0.055

             ENERGY     K=13/2   9/2   5/2   1/2  -3/2  -7/2 -11/2
 
 I= 13/2- (1)  7.627  26: 0.007 0.179 0.619 0.250-0.599-0.402-0.049
 
 I= 13/2- (2)  7.673  28: 0.027-0.224 0.588-0.690 0.354-0.041-0.018
 
 I= 13/2- (3)  8.105  30: 0.017-0.147 0.435-0.655 0.545-0.245 0.049
 
 I= 13/2- (4)  8.713  24: 0.001 0.003-0.000-0.024 0.127-0.420 0.898
 
 I= 13/2- (5)  8.832  32: 0.023-0.183 0.496-0.670 0.487-0.182 0.028

             ENERGY     K=13/2   9/2   5/2   1/2  -3/2  -7/2 -11/2
  32 LEVELS    TIME=  0.0 SEC



 ******************* EXCITATION ENERGIES, DOMINANT CONFIGURATION AND EXPECTATION VALUES (WITH S.P. UU+VV FACTORS) *******************

  NR  Eex(keV)  I   Kdom  NY    <Jz>  <Jx**2> <Jy**2> <Jz**2> <I.j>/|I|  <Rx**2> <Ry**2> <Rz**2> <R.j>/|R|  <HROTx> <HROTy> <HROTz>

   1    0.0   1/2-   1/2  28    0.37    2.90   13.33    2.15    0.68       2.38   13.54    2.03   -4.20      0.580   0.824   0.494
   2  522.2   1/2-   1/2  30   -0.20    2.85    0.90    8.88    0.25       2.80    0.81    9.34   -3.45      0.681   0.049   2.272
   3  560.3   1/2-   1/2  32    0.03    3.90    6.11    8.33   -0.22       3.96    6.95    8.55   -4.20      0.963   0.423   2.081
   4  621.1   3/2-   1/2  28    0.37    2.90   13.33    2.15    0.02       2.97   15.62    3.47   -3.91      0.724   0.950   0.845
   5  741.6   5/2-   1/2  28    0.37    2.90   13.33    2.15    0.45       3.80   18.17    2.51   -3.45      0.924   1.105   0.611
  
   6  827.3   3/2-   1/2  32    0.03    3.90    6.11    8.33    0.47       4.41    6.57    9.29   -3.87      1.073   0.399   2.261
   7 1151.0   1/2-   1/2  33    0.59    2.67    3.21   12.95    0.32       3.04    3.38   12.62   -4.25      0.740   0.206   3.071
   8 1311.7   5/2-   1/2  30   -0.20    2.85    0.90    8.88    0.29       4.09    5.45   10.13   -2.66      0.996   0.332   2.465
   9 1358.7   5/2-   5/2  28    0.37    2.90   13.33    2.15    0.53       3.99   14.15    5.86   -3.43      0.971   0.861   1.425
  10 1579.5   5/2-   1/2  32    0.03    3.90    6.11    8.33   -0.41       5.21   14.75    9.54   -3.60      1.268   0.897   2.321
  
  11 1658.8   7/2-   3/2  28    0.37    2.90   13.33    2.15    0.12       4.30   24.73    4.13   -3.11      1.046   1.505   1.006
  12 1777.0   7/2-   1/2  32    0.03    3.90    6.11    8.33    0.53       5.63   14.17   10.08   -2.97      1.369   0.862   2.452
  13 1954.8   5/2-   3/2  30   -0.20    2.85    0.90    8.88    0.16       7.28    2.98   10.20   -2.69      1.772   0.181   2.482
  14 2059.9   7/2-   3/2  30   -0.20    2.85    0.90    8.88   -0.14       4.49   14.47   10.55   -2.43      1.093   0.880   2.567
  15 2069.6   9/2-   1/2  28    0.37    2.90   13.33    2.15    0.29       4.41   31.91    3.92   -2.67      1.072   1.941   0.954
  
  16 2121.8  11/2-   1/2  26    0.09   42.10    8.16    1.22    5.72       3.54   12.29    3.02   -3.98      0.861   0.747   0.734
  17 2227.4   1/2-   1/2  36    0.41    1.90    2.28   11.08    0.59       1.85    2.22   10.93   -3.81      0.450   0.135   2.658
  18 2239.5   7/2-   5/2  28    0.37    2.90   13.33    2.15    0.34       5.68   19.20    6.52   -3.04      1.382   1.168   1.588
  19 2568.2   9/2-   1/2  30   -0.20    2.85    0.90    8.88    0.31       5.08   18.10   11.14   -1.90      1.236   1.101   2.711
  20 2583.5   7/2-   1/2  33    0.59    2.67    3.21   12.95    0.12       4.30   15.01   14.34   -3.17      1.047   0.913   3.488
  
  21 3066.2   9/2-   1/2  32    0.03    3.90    6.11    8.33   -0.49       6.15   31.17   10.61   -3.00      1.495   1.896   2.582
  22 3213.5  11/2-   1/2  32    0.03    3.90    6.11    8.33    0.55       6.63   29.78   11.08   -2.18      1.613   1.812   2.696
  23 3272.2  11/2-   3/2  28    0.37    2.90   13.33    2.15    0.03       5.36   43.32    5.05   -2.48      1.305   2.635   1.229
  24 3333.9   9/2-   1/2  33    0.59    2.67    3.21   12.95    0.14       4.93   22.32   14.97   -2.79      1.199   1.358   3.643
  25 3366.7  11/2-  11/2  24   -4.49    3.38    2.06   23.49    4.03       4.73    7.42    4.36   -1.19      1.150   0.452   1.062
  
  26 3725.3  11/2-   3/2  30   -0.20    2.85    0.90    8.88   -0.20       5.50   33.75   11.57   -1.94      1.338   2.053   2.815
  27 3825.5   9/2-   3/2  28    0.37    2.90   13.33    2.15    0.46      11.53   20.04    6.98   -2.59      2.806   1.219   1.698
  28 3832.6  13/2-   5/2  26    0.09   42.10    8.16    1.22    4.79       3.98   22.20    7.13   -3.12      0.967   1.350   1.736
  29 3878.4  13/2-   1/2  28    0.37    2.90   13.33    2.15    0.23       5.39   53.61    4.95   -2.10      1.311   3.261   1.204
  30 4311.0  13/2-   1/2  30   -0.20    2.85    0.90    8.88    0.32       6.08   38.74   12.14   -1.38      1.479   2.357   2.955
  
  31 4918.7  13/2-  11/2  24   -4.49    3.38    2.06   23.49    3.27       7.94   19.64    4.47   -1.08      1.932   1.195   1.089
  32 5037.7  13/2-   1/2  32    0.03    3.90    6.11    8.33   -0.52       7.14   55.57   11.61   -2.55      1.738   3.380   2.826
