1SPECTRUM OF (Z= 82 A=207) IN PARTICLE-ROTOR  MODEL WITH MODIFIED OSCILLATOR POTENTIAL


 PARITY=-   EPS= 0.462   GAMMA=  6.7   EPS4=0.000   EPS6=0.000   LEVELS:  25  26  27  28  29  30  31  32  33  34  35  36  37  38  39

 PAIRING FACTORS: GN0= 19.20  GN1=  7.40  IPAIR= 15 ***  E2PLUS(INPUT)=   0.730  E2PLUR(INPUT)=   0.000

 CORIOLIS ATTENUATION PARAMETERS:  CHSI=1.000  ETA=  1.00

 MOMENT OF INERTIA PARAMETERS:   A1=  0.138 MEV   A2=  0.105 MEV   A3=  6.58901 MEV


 DELTA=0.802 MEV  LAMBDA=53.4592 MEV   HW0= 7.6143 MEV   LAMBDA/HW0= 7.0209

 E2ENERGY=0.730 MEV  HBAR**2/B=38440./A**(7/3)=6498.1/A**2 MEV

 IREC=0  =>  RECOIL TERMS j+j-, j+j+, jzjz, ETC TREATED AS ONE-BODY OPERATORS WITH UU+VV PAIRING FACTORS



 S. P. LEVEL   EQP       U     V        (UU + VV)**1.00

     25       3.883    0.104 0.995      1.000 1.000 0.999 0.996 0.989 0.970 0.852 0.843 0.456 0.348 0.314 0.285 0.267 0.235 0.199
     26       3.049    0.133 0.991      1.000 1.000 1.000 0.998 0.993 0.977 0.867 0.858 0.482 0.375 0.341 0.313 0.295 0.263 0.228
     27       2.608    0.156 0.988      0.999 1.000 1.000 0.999 0.995 0.982 0.878 0.870 0.502 0.396 0.363 0.335 0.317 0.285 0.250
     28       2.168    0.188 0.982      0.996 0.998 0.999 1.000 0.998 0.988 0.894 0.886 0.531 0.426 0.394 0.366 0.348 0.317 0.282
     29       1.651    0.251 0.968      0.989 0.993 0.995 0.998 1.000 0.996 0.921 0.913 0.584 0.483 0.452 0.425 0.407 0.377 0.343
     30       1.252    0.341 0.940      0.970 0.977 0.982 0.988 0.996 1.000 0.953 0.948 0.658 0.563 0.533 0.508 0.491 0.462 0.430
     31       0.830    0.609 0.793      0.852 0.867 0.878 0.894 0.921 0.953 1.000 1.000 0.855 0.787 0.764 0.744 0.732 0.709 0.683
     32       0.823    0.623 0.782      0.843 0.858 0.870 0.886 0.913 0.948 1.000 1.000 0.864 0.798 0.776 0.756 0.744 0.721 0.696
     33       1.189    0.932 0.362      0.456 0.482 0.502 0.531 0.584 0.658 0.855 0.864 1.000 0.993 0.988 0.983 0.979 0.972 0.963
     34       1.667    0.969 0.248      0.348 0.375 0.396 0.426 0.483 0.563 0.787 0.798 0.993 1.000 0.999 0.998 0.996 0.993 0.988
     35       1.923    0.977 0.213      0.314 0.341 0.363 0.394 0.452 0.533 0.764 0.776 0.988 0.999 1.000 1.000 0.999 0.997 0.993
     36       2.219    0.983 0.184      0.285 0.313 0.335 0.366 0.425 0.508 0.744 0.756 0.983 0.998 1.000 1.000 1.000 0.999 0.996
     37       2.462    0.986 0.165      0.267 0.295 0.317 0.348 0.407 0.491 0.732 0.744 0.979 0.996 0.999 1.000 1.000 0.999 0.998
     38       3.046    0.991 0.133      0.235 0.263 0.285 0.317 0.377 0.462 0.709 0.721 0.972 0.993 0.997 0.999 0.999 1.000 0.999
     39       4.167    0.995 0.097      0.199 0.228 0.250 0.282 0.343 0.430 0.683 0.696 0.963 0.988 0.993 0.996 0.998 0.999 1.000

  R CORE   ENERGY   A0R/A00=1.000    R3= 0     2  
   2( 1)    0.730                    1.000-0.002
   2( 2)   26.600                    0.002 1.000

  R CORE   ENERGY   A0R/A00=1.000    R3= 0     2  
   3( 1)   27.330                    0.000 1.000

  R CORE   ENERGY   A0R/A00=1.000    R3= 0     2     4  
   4( 1)    2.432                    1.000-0.008 0.000

  R CORE   ENERGY   A0R/A00=1.000    R3= 0     2     4  
   5( 1)   29.520                    0.000 1.000-0.002

  R CORE   ENERGY   A0R/A00=1.000    R3= 0     2     4     6  
   6( 1)    5.102                    1.000-0.018 0.000-0.000

  R CORE   ENERGY   A0R/A00=1.000    R3= 0     2     4     6  
   7( 1)   32.682                    0.000 1.000-0.005 0.000
 

             ENERGY     K= 1/2
 
 I=  1/2- (1)  4.164  26:-0.062
                      30: 0.216
                      31: 0.881
                      36:-0.387
                      38:-0.144
 
 I=  1/2- (2)  4.909  28: 0.212
                      29:-0.092
                      32:-0.743
                      33:-0.627
 
 I=  1/2- (3)  6.924  30:-0.149
                      31:-0.388
                      34:-0.076
                      36:-0.822
                      38:-0.380
 
 I=  1/2- (4) 10.554  25: 0.999
 
 I=  1/2- (5) 22.823  35:-0.195
                      37:-0.133
                      39: 0.972

             ENERGY     K= 1/2  -3/2
 
 I=  3/2- (1)  4.373  26: 0.068 0.064
                      30:-0.255-0.001
                      31:-0.934-0.001
                      36:-0.041-0.089
                      38:-0.043 0.199
 
 I=  3/2- (2)  4.949  28: 0.138-0.068
                      29:-0.060 0.161
                      32:-0.482 0.466
                      33:-0.408-0.574

             ENERGY     K= 5/2   1/2  -3/2
 
 I=  5/2- (1)  4.368  26: 0.000 0.054-0.084
                      30:-0.062-0.188 0.001
                      31: 0.018-0.795 0.000
                      34: 0.000 0.051 0.047
                      36: 0.002 0.469 0.100
                      38: 0.001 0.182-0.224
 
 I=  5/2- (2)  4.935  28:-0.960 0.011 0.013
                      29:-0.086-0.004-0.029
                      32:-0.198-0.031-0.087
                      33:-0.097-0.026 0.106
 
 I=  5/2- (3)  5.454  25:-0.000 0.124-0.001
                      28: 0.137 0.114 0.073
                      29: 0.012-0.049-0.173
                      32: 0.028-0.399-0.503
                      33: 0.014-0.339 0.621
 
 I=  5/2- (4)  6.118  28: 0.041-0.178 0.049
                      29: 0.003 0.078-0.116
                      32: 0.007 0.624-0.336
                      33: 0.003 0.522 0.411
 
 I=  5/2- (5)  6.612  26: 0.005-0.007-0.501
                      30:-0.813-0.012-0.012
                      31: 0.237 0.008-0.039
                      36: 0.037-0.146-0.019
                      38: 0.015-0.066 0.040

             ENERGY     K= 5/2   1/2  -3/2  -7/2
 
 I=  7/2- (1)  4.235  28: 0.222-0.001 0.001-0.046
                      29: 0.020 0.000-0.005 0.824
                      32: 0.046 0.001-0.009-0.182
                      33: 0.022 0.001 0.010 0.113
                      35:-0.000 0.000-0.001 0.466
 
 I=  7/2- (2)  4.321  27: 0.000-0.000-0.000 0.062
                      28:-0.132 0.001-0.001-0.028
                      29:-0.012-0.000 0.000 0.491
                      32:-0.028-0.001 0.006-0.098
                      35:-0.000-0.000 0.002-0.848
                      39: 0.001 0.000 0.000-0.073
 
 I=  7/2- (3)  4.680  26: 0.001 0.057 0.222 0.002
                      30:-0.209-0.236 0.001-0.000
                      31: 0.062-0.827 0.008-0.000
                      34: 0.001-0.013-0.060-0.080
                      36: 0.010-0.192-0.129 0.014
                      38: 0.004-0.106 0.291-0.014
 
 I=  7/2- (4)  5.875  28:-0.889 0.033-0.025-0.007
                      29:-0.080-0.012 0.056 0.123
                      32:-0.183-0.102 0.170-0.029
                      33:-0.090-0.085-0.207 0.020
                      35: 0.001 0.001 0.003 0.224
 
 I=  7/2- (5)  6.186  28: 0.264 0.159-0.054 0.002
                      29: 0.024-0.070 0.127-0.031
                      32: 0.056-0.562 0.365 0.006
                      33: 0.028-0.474-0.444-0.004
                      35:-0.001 0.007 0.020-0.055

             ENERGY     K= 9/2   5/2   1/2  -3/2  -7/2
 
 I=  9/2- (1)  4.481  28:-0.001-0.114 0.001 0.001-0.025
                      29:-0.000-0.010-0.000-0.004 0.452
                      32:-0.000-0.024-0.001-0.004-0.100
                      33:-0.000-0.012-0.001 0.005 0.062
                      35: 0.008 0.000-0.000-0.001 0.233
                      37: 0.843-0.001-0.000 0.000-0.004
 
 I=  9/2- (2)  5.226  26:-0.000-0.002-0.043 0.260 0.004
                      30: 0.000 0.303 0.165 0.002-0.000
                      31:-0.000-0.091 0.693 0.009-0.000
                      34:-0.000-0.001-0.046-0.055-0.151
                      36:-0.000-0.010-0.423-0.120 0.026
                      38:-0.000-0.004-0.165 0.271-0.026
 
 I=  9/2- (3)  5.349  28: 0.001 0.282-0.003-0.002-0.011
                      29: 0.000 0.025 0.000 0.004 0.180
                      32: 0.000 0.059 0.004 0.016-0.030
                      35: 0.002-0.000 0.000 0.005-0.914
                      37: 0.194-0.000 0.000-0.000 0.016
                      39: 0.010-0.002-0.001 0.001-0.078
 
 I=  9/2- (4)  5.560  28: 0.001 0.203-0.002-0.002 0.046
                      29: 0.000 0.018 0.000 0.009-0.816
                      32:-0.000 0.042 0.003 0.012 0.176
                      33:-0.000 0.021 0.003-0.015-0.102
                      37: 0.494-0.006 0.000-0.000-0.000
 
 I=  9/2- (5)  6.245  26:-0.000-0.004 0.028 0.405 0.010
                      30: 0.002 0.637-0.053 0.011-0.000
                      31:-0.001-0.187-0.285 0.034-0.001
                      34:-0.000-0.003 0.030 0.023-0.432
                      36:-0.000-0.029 0.289 0.049 0.072
                      38:-0.000-0.012 0.120-0.101-0.068

             ENERGY     K= 9/2   5/2   1/2  -3/2  -7/2 -11/2
 
 I= 11/2- (1)  4.294  27: 0.000 0.000-0.000-0.000 0.004-0.997
                      29:-0.000-0.000-0.000 0.000-0.009 0.052
 
 I= 11/2- (2)  5.456  26: 0.000-0.002-0.036-0.382-0.006 0.000
                      30: 0.000 0.421 0.192-0.005 0.000-0.000
                      31:-0.000-0.126 0.656-0.022 0.000-0.000
                      34: 0.000-0.002 0.016 0.054 0.212-0.001
                      36: 0.000-0.020 0.206 0.117-0.037 0.000
                      38: 0.000-0.008 0.108-0.270 0.036-0.000
 
 I= 11/2- (3)  5.569  28: 0.001 0.156-0.002 0.001-0.028-0.000
                      29: 0.000 0.014 0.000-0.007 0.506 0.002
                      32: 0.000 0.032 0.001-0.007-0.112-0.000
                      33: 0.000 0.016 0.001 0.008 0.069 0.000
                      35:-0.008-0.000 0.000-0.002 0.281-0.002
                      37:-0.786 0.003 0.000 0.000-0.005 0.000
 
 I= 11/2- (4)  6.624  27:-0.000-0.001 0.000 0.000-0.050 0.005
                      28: 0.001 0.323-0.005 0.003 0.014 0.000
                      29: 0.000 0.029 0.000-0.004-0.238 0.000
                      32: 0.000 0.067 0.004-0.023 0.043 0.000
                      35: 0.002-0.000 0.000-0.007 0.878-0.004
                      37: 0.222-0.001 0.000 0.000-0.016 0.000
                      39: 0.011-0.002-0.000-0.001 0.076-0.000
 
 I= 11/2- (5)  7.046  28: 0.000-0.262 0.005-0.004 0.042-0.000
                      29: 0.000-0.024-0.001 0.014-0.754 0.006
                      32: 0.000-0.054-0.006 0.022 0.162-0.001
                      33: 0.000-0.027-0.005-0.026-0.093 0.001
                      37:-0.562 0.009-0.000-0.000-0.000 0.000

             ENERGY     K=13/2   9/2   5/2   1/2  -3/2  -7/2 -11/2
 
 I= 13/2- (1)  5.872  27:-0.000-0.000-0.000 0.000-0.000 0.008-0.996
                      29: 0.000 0.000 0.000-0.000 0.000-0.020 0.052
                      37: 0.000-0.052 0.000-0.000-0.000 0.000 0.001
 
 I= 13/2- (2)  6.545  26:-0.000 0.000-0.003-0.022 0.447 0.010-0.000
                      30:-0.000-0.000 0.556 0.117 0.006-0.000 0.000
                      31: 0.000-0.000-0.166 0.468 0.022-0.000 0.000
                      34: 0.000 0.000-0.002-0.027-0.043-0.309 0.002
                      36: 0.000 0.000-0.020-0.246-0.094 0.053-0.000
                      38: 0.000 0.000-0.008-0.094 0.221-0.052 0.000
 
 I= 13/2- (3)  6.916  27:-0.000 0.000-0.001 0.000 0.000-0.014 0.054
                      28:-0.000 0.001 0.187-0.003-0.002 0.029 0.000
                      29:-0.000 0.000 0.017-0.000 0.010-0.528-0.002
                      32:-0.000 0.000 0.039 0.001 0.009 0.118 0.000
                      33:-0.000 0.000 0.019 0.001-0.010-0.073 0.000
                      35: 0.000-0.007-0.000 0.000 0.003-0.309 0.004
                      37: 0.004-0.750 0.005 0.000-0.000 0.006-0.000
 
 I= 13/2- (4)  7.835  26: 0.000-0.000-0.003 0.045 0.254 0.009-0.000
                      30:-0.000 0.001 0.422-0.116 0.010-0.000 0.000
                      31: 0.000-0.000-0.121-0.552 0.030-0.001 0.000
                      34: 0.000 0.000-0.002 0.049 0.048-0.307 0.002
                      36: 0.000 0.000-0.024 0.464 0.107 0.050-0.000
                      38: 0.000 0.000-0.010 0.190-0.235-0.046 0.000
 
 I= 13/2- (5)  8.136  28:-0.000-0.000 0.357-0.008-0.004-0.015 0.000
                      29:-0.000 0.000 0.032 0.001 0.006 0.262-0.001
                      32:-0.000 0.000 0.074 0.011 0.033-0.049 0.000
                      35:-0.000 0.002-0.000 0.000 0.010-0.848 0.007
                      37:-0.001 0.251-0.002 0.000-0.000 0.015-0.000
                      39:-0.000 0.013-0.003-0.002 0.001-0.073 0.001

             ENERGY     K=13/2   9/2   5/2   1/2  -3/2  -7/2 -11/2
  32 LEVELS    TIME=  0.0 SEC



 ******************* EXCITATION ENERGIES, DOMINANT CONFIGURATION AND EXPECTATION VALUES (WITH S.P. UU+VV FACTORS) *******************

  NR  Eex(keV)  I   Kdom  NY    <Jz>  <Jx**2> <Jy**2> <Jz**2> <I.j>/|I|  <Rx**2> <Ry**2> <Rz**2> <R.j>/|R|  <HROTx> <HROTy> <HROTz>

   1    0.0   1/2-   1/2  31    0.50   12.79   12.44    0.27    1.18      12.26   11.92    0.02   -4.97      1.692   1.256   0.102
   2   70.8   7/2-   7/2  29   -3.14    5.93    5.28   11.72    3.14       7.10    6.55    0.13   -2.82      0.981   0.690   0.858
   3  129.9  11/2-  11/2  27   -5.46    2.80    2.68   30.00    5.04       5.51    5.45    0.05   -1.62      0.761   0.574   0.355
   4  157.2   7/2-   7/2  35   -3.34    3.24    2.98   11.97    3.07       4.78    4.59    0.20   -1.94      0.660   0.483   1.314
   5  204.2   5/2-   1/2  31    0.37   13.28   12.82    0.42    1.93      12.13   11.73    0.01   -4.26      1.675   1.236   0.080
  
   6  208.5   3/2-   1/2  31    0.40   13.84   14.27    0.41    1.68      12.57   13.15    0.04   -4.98      1.735   1.385   0.269
   7  317.1   9/2-   9/2  37    2.24    3.57    3.01   17.39    3.95       4.82    4.47    0.17   -1.41      0.665   0.470   1.101
   8  516.0   7/2-   1/2  31    0.27   15.63   16.35    0.97    2.95      12.23   13.04    0.05   -4.23      1.688   1.373   0.335
   9  745.0   1/2-   1/2  32    0.40    4.87    5.54    0.54    0.06       5.23    5.98    0.38   -3.20      0.722   0.630   2.520
  10  770.6   5/2-   5/2  28    2.40    6.06    6.18    6.21    2.11       7.20    7.37    0.16   -3.18      0.994   0.776   1.085
  
  11  785.1   3/2-   3/2  33   -0.64    4.76    5.66    1.59    1.09       5.09    6.07    0.39   -2.91      0.702   0.639   2.547
  12 1062.0   9/2-   1/2  31    0.29   15.39   15.08    1.45    2.79      14.62   14.29    0.02   -3.36      2.019   1.505   0.151
  13 1185.2   9/2-   7/2  35   -2.65    2.74    2.51   11.90    2.56       8.07    8.10    0.22   -1.08      1.114   0.853   1.419
  14 1289.4   5/2-   3/2  33   -0.77    4.80    5.81    1.89    1.05       6.62    8.05    0.39   -2.42      0.914   0.848   2.559
  15 1291.4  11/2-   1/2  31    0.23   18.22   19.05    2.47    3.88      14.00   15.01    0.06   -3.07      1.932   1.581   0.384
  
  16 1396.2   9/2-   7/2  29   -1.26    5.59    5.01   13.61    2.55      12.02   11.42    0.13   -2.37      1.659   1.203   0.855
  17 1404.9  11/2-   9/2  37    1.57    3.86    3.29   16.63    3.38       9.58    9.41    0.16   -0.82      1.323   0.991   1.076
  18 1708.0  13/2-  11/2  27   -5.45    2.80    2.68   29.98    4.31      11.91   12.02    0.05   -1.09      1.645   1.266   0.358
  19 1711.2   7/2-   5/2  28    1.75    5.80    5.94    6.28    1.46      10.91   11.12    0.18   -2.60      1.506   1.171   1.210
  20 1953.8   5/2-   1/2  32   -0.13    4.84    5.58    1.09   -0.17       9.96   10.94    0.39   -2.61      1.375   1.152   2.538
  
  21 2021.4   7/2-   1/2  32   -0.09    4.88    5.64    1.65    0.74      10.27   11.40    0.37   -1.97      1.417   1.201   2.433
  22 2080.7   9/2-   5/2  30    0.24   20.98   20.62    5.56    3.74      16.89   17.74    0.05   -4.85      2.331   1.869   0.327
  23 2380.8  13/2-   5/2  30    0.25   19.78   19.74    3.96    3.95      18.33   18.72    0.05   -2.61      2.531   1.972   0.317
  24 2447.9   5/2-   5/2  30    1.42   22.66   22.69    5.02    3.75      18.26   18.62    0.06   -6.46      2.520   1.962   0.419
  25 2460.1  11/2-   7/2  35   -2.40    2.91    2.70   11.83    2.18      13.27   13.61    0.21   -0.84      1.832   1.434   1.393
  
  26 2751.6  13/2-   9/2  37    1.20    4.01    3.45   16.17    2.99      15.16   15.31    0.16   -0.50      2.092   1.613   1.066
  27 2759.4   1/2-   1/2  36    0.52   16.48   17.94    0.32   -0.93      17.78   19.28    0.05   -5.84      2.454   2.031   0.334
  28 2881.5  11/2-   7/2  29   -0.52    5.28    4.72   13.99    2.09      17.48   17.12    0.14   -1.95      2.413   1.804   0.910
  29 3670.9  13/2-   1/2  31    0.22   16.68   16.16    2.85    2.51      24.21   25.19    0.03   -2.59      3.342   2.653   0.172
  30 3971.8  13/2-   7/2  35   -2.14    3.05    2.85   11.77    1.92      19.31   20.15    0.21   -0.68      2.665   2.123   1.377
  
  31 6389.6   1/2-   1/2  25    0.60    3.63   11.74    1.10    0.74       3.41   11.78    0.75   -3.96      0.471   1.241   4.963
  3218658.9   1/2-   1/2  39   -0.07    3.05    0.60    2.46    0.34       3.10    0.39    2.78   -2.32      0.429   0.041  18.302
